# wavelength in nm, signal in a.u.
8.0000e+02,3.9840e-09
8.0020e+02,6.6810e-10
8.0040e+02,0.0000e+00
8.0060e+02,0.0000e+00
8.0080e+02,9.8225e-22
8.0100e+02,8.6400e-10
8.0120e+02,1.9645e-22
8.0140e+02,1.7280e-10
8.0160e+02,3.4560e-10
8.0180e+02,3.9740e-09
8.0200e+02,2.1480e-09
8.0220e+02,1.2310e-10
8.0240e+02,4.5503e-21
8.0260e+02,1.6010e-09
8.0280e+02,8.6200e-10
8.0300e+02,0.0000e+00
8.0320e+02,0.0000e+00
8.0340e+02,0.0000e+00
8.0360e+02,6.5495e-21
8.0380e+02,1.6460e-09
8.0400e+02,0.0000e+00
8.0420e+02,0.0000e+00
8.0440e+02,0.0000e+00
8.0460e+02,1.0912e-20
8.0480e+02,2.1330e-09
8.0500e+02,2.8930e-09
8.0520e+02,5.8840e-10
8.0540e+02,0.0000e+00
8.0560e+02,9.9669e-21
8.0580e+02,1.5940e-09
8.0600e+02,3.0034e-21
8.0620e+02,4.4030e-10
8.0640e+02,4.8920e-10
8.0660e+02,2.2750e-09
8.0680e+02,2.4460e-10
8.0700e+02,6.9912e-21
8.0720e+02,8.7850e-10
8.0740e+02,1.3910e-09
8.0760e+02,1.6857e-20
8.0780e+02,1.9770e-09
8.0800e+02,4.3930e-10
8.0820e+02,1.9770e-09
8.0840e+02,1.0010e-09
8.0860e+02,9.4960e-10
8.0880e+02,9.4960e-10
8.0900e+02,1.3150e-09
8.0920e+02,2.4350e-10
8.0940e+02,1.3630e-09
8.0960e+02,0.0000e+00
8.0980e+02,1.8781e-20
8.1000e+02,1.6520e-09
8.1020e+02,9.6657e-21
8.1040e+02,8.5020e-10
8.1060e+02,0.0000e+00
8.1080e+02,1.7920e-20
8.1100e+02,1.4330e-09
8.1120e+02,9.9370e-10
8.1140e+02,1.2674e-21
8.1160e+02,9.6940e-11
8.1180e+02,8.2400e-10
8.1200e+02,0.0000e+00
8.1220e+02,9.9194e-21
8.1240e+02,7.2710e-10
8.1260e+02,1.6200e-09
8.1280e+02,0.0000e+00
8.1300e+02,0.0000e+00
8.1320e+02,4.6451e-21
8.1340e+02,3.1430e-10
8.1360e+02,0.0000e+00
8.1380e+02,3.8390e-22
8.1400e+02,2.4120e-11
8.1420e+02,1.2790e-09
8.1440e+02,0.0000e+00
8.1460e+02,2.7842e-20
8.1480e+02,1.6890e-09
8.1500e+02,9.8910e-10
8.1520e+02,4.1047e-22
8.1540e+02,2.4070e-11
8.1560e+02,2.0940e-09
8.1580e+02,1.1790e-09
8.1600e+02,2.4070e-11
8.1620e+02,1.2030e-09
8.1640e+02,2.7537e-20
8.1660e+02,1.4680e-09
8.1680e+02,4.0200e-09
8.1700e+02,8.3530e-21
8.1720e+02,4.3220e-10
8.1740e+02,1.1290e-09
8.1760e+02,1.1770e-09
8.1780e+02,1.8250e-09
8.1800e+02,1.2970e-09
8.1820e+02,1.3727e-20
8.1840e+02,6.7080e-10
8.1860e+02,1.9148e-20
8.1880e+02,9.1040e-10
8.1900e+02,0.0000e+00
8.1920e+02,1.7596e-20
8.1940e+02,8.1460e-10
8.1960e+02,3.8330e-10
8.1980e+02,2.5534e-20
8.2000e+02,1.1230e-09
8.2020e+02,2.4397e-20
8.2040e+02,1.0730e-09
8.2060e+02,0.0000e+00
8.2080e+02,8.0098e-20
8.2100e+02,3.3550e-09
8.2120e+02,4.5337e-20
8.2140e+02,1.8990e-09
8.2160e+02,1.8040e-09
8.2180e+02,1.0210e-09
8.2200e+02,4.1468e-20
8.2220e+02,1.6580e-09
8.2240e+02,0.0000e+00
8.2260e+02,0.0000e+00
8.2280e+02,4.8191e-20
8.2300e+02,1.8430e-09
8.2320e+02,7.7058e-20
8.2340e+02,2.9470e-09
8.2360e+02,3.2930e-10
8.2380e+02,1.8611e-20
8.2400e+02,6.8210e-10
8.2420e+02,6.5710e-10
8.2440e+02,1.8954e-20
8.2460e+02,6.8050e-10
8.2480e+02,1.3110e-09
8.2500e+02,1.2410e-09
8.2520e+02,1.3941e-20
8.2540e+02,4.9050e-10
8.2560e+02,1.5539e-20
8.2580e+02,5.3600e-10
8.2600e+02,7.8537e-20
8.2620e+02,2.6570e-09
8.2640e+02,2.6620e-20
8.2660e+02,8.8360e-10
8.2680e+02,9.0680e-10
8.2700e+02,1.8790e-09
8.2720e+02,0.0000e+00
8.2740e+02,0.0000e+00
8.2760e+02,1.8089e-20
8.2780e+02,5.7860e-10
8.2800e+02,1.5280e-09
8.2820e+02,6.8376e-20
8.2840e+02,2.1480e-09
8.2860e+02,7.6030e-10
8.2880e+02,2.3040e-11
8.2900e+02,9.9070e-10
8.2920e+02,3.7882e-21
8.2940e+02,1.1490e-10
8.2960e+02,0.0000e+00
8.2980e+02,0.0000e+00
8.3000e+02,7.0224e-21
8.3020e+02,2.0590e-10
8.3040e+02,2.3740e-09
8.3060e+02,1.8220e-10
8.3080e+02,0.0000e+00
8.3100e+02,0.0000e+00
8.3120e+02,9.1667e-20
8.3140e+02,2.6010e-09
8.3160e+02,7.0942e-20
8.3180e+02,1.9810e-09
8.3200e+02,0.0000e+00
8.3220e+02,2.6088e-20
8.3240e+02,7.1710e-10
8.3260e+02,2.3480e-09
8.3280e+02,0.0000e+00
8.3300e+02,0.0000e+00
8.3320e+02,1.3330e-20
8.3340e+02,3.5530e-10
8.3360e+02,1.7760e-10
8.3380e+02,3.2350e-09
8.3400e+02,0.0000e+00
8.3420e+02,0.0000e+00
8.3440e+02,0.0000e+00
8.3460e+02,2.8412e-20
8.3480e+02,7.2440e-10
8.3500e+02,2.4090e-10
8.3520e+02,7.1304e-20
8.3540e+02,1.7920e-09
8.3560e+02,1.1849e-19
8.3580e+02,2.9360e-09
8.3600e+02,3.2550e-10
8.3620e+02,6.7270e-10
8.3640e+02,0.0000e+00
8.3660e+02,8.0502e-21
8.3680e+02,1.9400e-10
8.3700e+02,0.0000e+00
8.3720e+02,5.0519e-20
8.3740e+02,1.2010e-09
8.3760e+02,4.1059e-20
8.3780e+02,9.6310e-10
8.3800e+02,5.1250e-10
8.3820e+02,1.3210e-09
8.3840e+02,0.0000e+00
8.3860e+02,5.6638e-20
8.3880e+02,1.2940e-09
8.3900e+02,4.2117e-20
8.3920e+02,9.4990e-10
8.3940e+02,6.8078e-20
8.3960e+02,1.5160e-09
8.3980e+02,2.1640e-09
8.4000e+02,1.2133e-19
8.4020e+02,2.6680e-09
8.4040e+02,1.2574e-20
8.4060e+02,2.7310e-10
8.4080e+02,2.1010e-11
8.4100e+02,0.0000e+00
8.4120e+02,9.4249e-20
8.4140e+02,2.0220e-09
8.4160e+02,4.4230e-10
8.4180e+02,1.3270e-09
8.4200e+02,4.0010e-10
8.4220e+02,4.0223e-20
8.4240e+02,8.4240e-10
8.4260e+02,1.8740e-09
8.4280e+02,2.1270e-09
8.4300e+02,1.0320e-09
8.4320e+02,5.0660e-10
8.4340e+02,4.6976e-20
8.4360e+02,9.4990e-10
8.4380e+02,7.9185e-20
8.4400e+02,1.5830e-09
8.4420e+02,1.1400e-09
8.4440e+02,1.0340e-09
8.4460e+02,1.0340e-09
8.4480e+02,4.2310e-11
8.4500e+02,6.4921e-21
8.4520e+02,1.2690e-10
8.4540e+02,8.7575e-21
8.4560e+02,1.6930e-10
8.4580e+02,0.0000e+00
8.4600e+02,0.0000e+00
8.4620e+02,0.0000e+00
8.4640e+02,4.9328e-20
8.4660e+02,9.3310e-10
8.4680e+02,1.3150e-09
8.4700e+02,6.7860e-10
8.4720e+02,2.6300e-09
8.4740e+02,8.2700e-10
8.4760e+02,6.1500e-10
8.4780e+02,5.2076e-20
8.4800e+02,9.5430e-10
8.4820e+02,1.9550e-09
8.4840e+02,0.0000e+00
8.4860e+02,0.0000e+00
8.4880e+02,2.3681e-20
8.4900e+02,4.2510e-10
8.4920e+02,0.0000e+00
8.4940e+02,4.0670e-20
8.4960e+02,7.2270e-10
8.4980e+02,1.4529e-20
8.5000e+02,2.5560e-10
8.5020e+02,5.4621e-20
8.5040e+02,9.6090e-10
8.5060e+02,0.0000e+00
8.5080e+02,4.5915e-20
8.5100e+02,7.9190e-10
8.5120e+02,1.1915e-19
8.5140e+02,2.0550e-09
8.5160e+02,2.4880e-09
8.5180e+02,2.9390e-09
8.5200e+02,1.6300e-09
8.5220e+02,1.6770e-09
8.5240e+02,3.6550e-10
8.5260e+02,1.2040e-09
8.5280e+02,2.1980e-09
8.5300e+02,2.8020e-10
8.5320e+02,1.7020e-09
8.5340e+02,1.9010e-09
8.5360e+02,8.6400e-10
8.5380e+02,3.2180e-09
8.5400e+02,7.3610e-10
8.5420e+02,1.9700e-09
8.5440e+02,2.8210e-10
8.5460e+02,0.0000e+00
8.5480e+02,4.0799e-21
8.5500e+02,6.5250e-11
8.5520e+02,4.5670e-09
8.5540e+02,0.0000e+00
8.5560e+02,0.0000e+00
8.5580e+02,0.0000e+00
8.5600e+02,2.0869e-20
8.5620e+02,3.2780e-10
8.5640e+02,1.5300e-10
8.5660e+02,1.6170e-09
8.5680e+02,2.3430e-09
8.5700e+02,9.1980e-10
8.5720e+02,5.1206e-20
8.5740e+02,7.9020e-10
8.5760e+02,1.0328e-19
8.5780e+02,1.5800e-09
8.5800e+02,0.0000e+00
8.5820e+02,2.1179e-19
8.5840e+02,3.2120e-09
8.5860e+02,0.0000e+00
8.5880e+02,3.8756e-19
8.5900e+02,5.7780e-09
8.5920e+02,1.3040e-09
8.5940e+02,4.9339e-20
8.5960e+02,7.2940e-10
8.5980e+02,1.6840e-09
8.6000e+02,9.5260e-10
8.6020e+02,2.4150e-09
8.6040e+02,1.0210e-09
8.6060e+02,9.9525e-20
8.6080e+02,1.4470e-09
8.6100e+02,1.1130e-09
8.6120e+02,9.3480e-10
8.6140e+02,1.2940e-09
8.6160e+02,2.8110e-09
8.6180e+02,6.0370e-10
8.6200e+02,1.0510e-09
8.6220e+02,2.3852e-19
8.6240e+02,3.3840e-09
8.6260e+02,3.1847e-21
8.6280e+02,4.4820e-11
8.6300e+02,0.0000e+00
8.6320e+02,5.1604e-20
8.6340e+02,7.2050e-10
8.6360e+02,2.4770e-10
8.6380e+02,2.4540e-09
8.6400e+02,3.5650e-09
8.6420e+02,2.3690e-09
8.6440e+02,6.1368e-20
8.6460e+02,8.3690e-10
8.6480e+02,2.4650e-09
8.6500e+02,4.0810e-10
8.6520e+02,2.9470e-10
8.6540e+02,1.5420e-09
8.6560e+02,1.0998e-19
8.6580e+02,1.4770e-09
8.6600e+02,4.3270e-10
8.6620e+02,7.0066e-20
8.6640e+02,9.3380e-10
8.6660e+02,7.9900e-10
8.6680e+02,2.2830e-11
8.6700e+02,4.1090e-09
8.6720e+02,1.8300e-10
8.6740e+02,3.3630e-09
8.6760e+02,1.1240e-09
8.6780e+02,3.4400e-09
8.6800e+02,3.4400e-10
8.6820e+02,2.5970e-09
8.6840e+02,1.9080e-09
8.6860e+02,4.3900e-09
8.6880e+02,2.0500e-09
8.6900e+02,3.5480e-09
8.6920e+02,7.3890e-10
8.6940e+02,3.7870e-09
8.6960e+02,2.2860e-09
8.6980e+02,1.9670e-09
8.7000e+02,2.6390e-09
8.7020e+02,5.8000e-10
8.7040e+02,4.6500e-11
8.7060e+02,3.6970e-09
8.7080e+02,2.4700e-09
8.7100e+02,3.7750e-09
8.7120e+02,3.9010e-09
8.7140e+02,9.5990e-10
8.7160e+02,2.2703e-19
8.7180e+02,2.7930e-09
8.7200e+02,3.8490e-09
8.7220e+02,3.5050e-09
8.7240e+02,1.2970e-09
8.7260e+02,4.0310e-09
8.7280e+02,1.3000e-09
8.7300e+02,1.3230e-09
8.7320e+02,4.6890e-09
8.7340e+02,4.1310e-09
8.7360e+02,3.8220e-09
8.7380e+02,2.7120e-09
8.7400e+02,2.3080e-09
8.7420e+02,5.0080e-09
8.7440e+02,3.3460e-09
8.7460e+02,3.3460e-09
8.7480e+02,1.5570e-09
8.7500e+02,2.1320e-09
8.7520e+02,2.4730e-09
8.7540e+02,1.3240e-09
8.7560e+02,2.5750e-09
8.7580e+02,8.2750e-09
8.7600e+02,5.9350e-09
8.7620e+02,4.0860e-09
8.7640e+02,4.9930e-09
8.7660e+02,7.1740e-09
8.7680e+02,4.3000e-09
8.7700e+02,4.2270e-09
8.7720e+02,5.7950e-09
8.7740e+02,5.1000e-09
8.7760e+02,4.2460e-09
8.7780e+02,6.4570e-09
8.7800e+02,5.8700e-09
8.7820e+02,8.7770e-09
8.7840e+02,4.5950e-09
8.7860e+02,5.8240e-09
8.7880e+02,5.1230e-09
8.7900e+02,6.2560e-09
8.7920e+02,5.6040e-09
8.7940e+02,7.3490e-09
8.7960e+02,8.8090e-09
8.7980e+02,4.1910e-09
8.8000e+02,6.9690e-09
8.8020e+02,5.8410e-09
8.8040e+02,9.7690e-09
8.8060e+02,1.1560e-08
8.8080e+02,8.9440e-09
8.8100e+02,5.0080e-09
8.8120e+02,8.9900e-09
8.8140e+02,7.8660e-09
8.8160e+02,9.2610e-09
8.8180e+02,8.0600e-09
8.8200e+02,8.7850e-09
8.8220e+02,8.0030e-09
8.8240e+02,8.5550e-09
8.8260e+02,7.6690e-09
8.8280e+02,1.0010e-08
8.8300e+02,8.9770e-09
8.8320e+02,9.7540e-09
8.8340e+02,8.2410e-09
8.8360e+02,6.6440e-09
8.8380e+02,8.2600e-09
8.8400e+02,9.5450e-09
8.8420e+02,8.6590e-09
8.8440e+02,1.1670e-08
8.8460e+02,9.4910e-09
8.8480e+02,9.2880e-09
8.8500e+02,1.0450e-08
8.8520e+02,1.2720e-08
8.8540e+02,9.0000e-09
8.8560e+02,1.1420e-08
8.8580e+02,1.3130e-08
8.8600e+02,1.0910e-08
8.8620e+02,1.3900e-08
8.8640e+02,1.4800e-08
8.8660e+02,9.3490e-09
8.8680e+02,1.2220e-08
8.8700e+02,1.4120e-08
8.8720e+02,1.1860e-08
8.8740e+02,1.1060e-08
8.8760e+02,1.1860e-08
8.8780e+02,1.2950e-08
8.8800e+02,1.5240e-08
8.8820e+02,1.3130e-08
8.8840e+02,1.4610e-08
8.8860e+02,1.4680e-08
8.8880e+02,1.5990e-08
8.8900e+02,1.6040e-08
8.8920e+02,1.6580e-08
8.8940e+02,1.3270e-08
8.8960e+02,1.4000e-08
8.8980e+02,1.9390e-08
8.9000e+02,1.6030e-08
8.9020e+02,1.7470e-08
8.9040e+02,1.5330e-08
8.9060e+02,1.7440e-08
8.9080e+02,1.9050e-08
8.9100e+02,1.8320e-08
8.9120e+02,1.5040e-08
8.9140e+02,1.7070e-08
8.9160e+02,1.7910e-08
8.9180e+02,1.8660e-08
8.9200e+02,2.1320e-08
8.9220e+02,2.0560e-08
8.9240e+02,2.0120e-08
8.9260e+02,2.3500e-08
8.9280e+02,2.1060e-08
8.9300e+02,2.2590e-08
8.9320e+02,2.2380e-08
8.9340e+02,2.3870e-08
8.9360e+02,2.3190e-08
8.9380e+02,2.5530e-08
8.9400e+02,2.6520e-08
8.9420e+02,2.4440e-08
8.9440e+02,2.9410e-08
8.9460e+02,2.6190e-08
8.9480e+02,2.6830e-08
8.9500e+02,2.7370e-08
8.9520e+02,2.6770e-08
8.9540e+02,2.7090e-08
8.9560e+02,3.0720e-08
8.9580e+02,2.8460e-08
8.9600e+02,3.1530e-08
8.9620e+02,3.3320e-08
8.9640e+02,3.0830e-08
8.9660e+02,3.2620e-08
8.9680e+02,3.2180e-08
8.9700e+02,3.4410e-08
8.9720e+02,3.3920e-08
8.9740e+02,3.2700e-08
8.9760e+02,3.5270e-08
8.9780e+02,3.4120e-08
8.9800e+02,3.3450e-08
8.9820e+02,3.6460e-08
8.9840e+02,3.7160e-08
8.9860e+02,4.0100e-08
8.9880e+02,4.0230e-08
8.9900e+02,3.7680e-08
8.9920e+02,4.0640e-08
8.9940e+02,4.1190e-08
8.9960e+02,4.3080e-08
8.9980e+02,4.3270e-08
9.0000e+02,4.6370e-08
9.0020e+02,4.4670e-08
9.0040e+02,4.8850e-08
9.0060e+02,4.9940e-08
9.0080e+02,4.8840e-08
9.0100e+02,5.2760e-08
9.0120e+02,5.4710e-08
9.0140e+02,5.5890e-08
9.0160e+02,5.6960e-08
9.0180e+02,6.0230e-08
9.0200e+02,6.2110e-08
9.0220e+02,6.0770e-08
9.0240e+02,6.5580e-08
9.0260e+02,6.5930e-08
9.0280e+02,6.3050e-08
9.0300e+02,7.0410e-08
9.0320e+02,6.9060e-08
9.0340e+02,7.0120e-08
9.0360e+02,7.2510e-08
9.0380e+02,7.7450e-08
9.0400e+02,7.6090e-08
9.0420e+02,7.8650e-08
9.0440e+02,8.0500e-08
9.0460e+02,8.3610e-08
9.0480e+02,8.4410e-08
9.0500e+02,8.6930e-08
9.0520e+02,8.9110e-08
9.0540e+02,9.1750e-08
9.0560e+02,9.3550e-08
9.0580e+02,9.6420e-08
9.0600e+02,9.6650e-08
9.0620e+02,9.8890e-08
9.0640e+02,1.0570e-07
9.0660e+02,1.0420e-07
9.0680e+02,1.0580e-07
9.0700e+02,1.0980e-07
9.0720e+02,1.1700e-07
9.0740e+02,1.1680e-07
9.0760e+02,1.1870e-07
9.0780e+02,1.2150e-07
9.0800e+02,1.2560e-07
9.0820e+02,1.2910e-07
9.0840e+02,1.2950e-07
9.0860e+02,1.3330e-07
9.0880e+02,1.3490e-07
9.0900e+02,1.3950e-07
9.0920e+02,1.4260e-07
9.0940e+02,1.4880e-07
9.0960e+02,1.5670e-07
9.0980e+02,1.6190e-07
9.1000e+02,1.6660e-07
9.1020e+02,1.7790e-07
9.1040e+02,1.8670e-07
9.1060e+02,1.9430e-07
9.1080e+02,2.0230e-07
9.1100e+02,2.1250e-07
9.1120e+02,2.2780e-07
9.1140e+02,2.4360e-07
9.1160e+02,2.5950e-07
9.1180e+02,2.7430e-07
9.1200e+02,2.9680e-07
9.1220e+02,3.1660e-07
9.1240e+02,3.3810e-07
9.1260e+02,3.6080e-07
9.1280e+02,3.8790e-07
9.1300e+02,4.1190e-07
9.1320e+02,4.3770e-07
9.1340e+02,4.5660e-07
9.1360e+02,4.7460e-07
9.1380e+02,4.9350e-07
9.1400e+02,5.0720e-07
9.1420e+02,5.1500e-07
9.1440e+02,5.1940e-07
9.1460e+02,5.1800e-07
9.1480e+02,5.1580e-07
9.1500e+02,5.1130e-07
9.1520e+02,5.0640e-07
9.1540e+02,5.0160e-07
9.1560e+02,4.9080e-07
9.1580e+02,4.9050e-07
9.1600e+02,4.8690e-07
9.1620e+02,4.7390e-07
9.1640e+02,4.6830e-07
9.1660e+02,4.6360e-07
9.1680e+02,4.5550e-07
9.1700e+02,4.4840e-07
9.1720e+02,4.3940e-07
9.1740e+02,4.2630e-07
9.1760e+02,4.1620e-07
9.1780e+02,4.0520e-07
9.1800e+02,4.0360e-07
9.1820e+02,3.9000e-07
9.1840e+02,3.8310e-07
9.1860e+02,3.7970e-07
9.1880e+02,3.7320e-07
9.1900e+02,3.7580e-07
9.1920e+02,3.6800e-07
9.1940e+02,3.7220e-07
9.1960e+02,3.7380e-07
9.1980e+02,3.7610e-07
9.2000e+02,3.8060e-07
9.2020e+02,3.8850e-07
9.2040e+02,3.9010e-07
9.2060e+02,3.9230e-07
9.2080e+02,3.9070e-07
9.2100e+02,3.9560e-07
9.2120e+02,3.9340e-07
9.2140e+02,3.9380e-07
9.2160e+02,3.9800e-07
9.2180e+02,4.0200e-07
9.2200e+02,4.1060e-07
9.2220e+02,4.1320e-07
9.2240e+02,4.2370e-07
9.2260e+02,4.3460e-07
9.2280e+02,4.5190e-07
9.2300e+02,4.6610e-07
9.2320e+02,4.7950e-07
9.2340e+02,4.9750e-07
9.2360e+02,5.1880e-07
9.2380e+02,5.3370e-07
9.2400e+02,5.5350e-07
9.2420e+02,5.8000e-07
9.2440e+02,6.0790e-07
9.2460e+02,6.3110e-07
9.2480e+02,6.5670e-07
9.2500e+02,6.9210e-07
9.2520e+02,7.2550e-07
9.2540e+02,7.5880e-07
9.2560e+02,7.9230e-07
9.2580e+02,8.2360e-07
9.2600e+02,8.5410e-07
9.2620e+02,8.8140e-07
9.2640e+02,9.0480e-07
9.2660e+02,9.2860e-07
9.2680e+02,9.4080e-07
9.2700e+02,9.5770e-07
9.2720e+02,9.7840e-07
9.2740e+02,9.9070e-07
9.2760e+02,1.0020e-06
9.2780e+02,1.0180e-06
9.2800e+02,1.0200e-06
9.2820e+02,1.0370e-06
9.2840e+02,1.0510e-06
9.2860e+02,1.0680e-06
9.2880e+02,1.0850e-06
9.2900e+02,1.1010e-06
9.2920e+02,1.1220e-06
9.2940e+02,1.1380e-06
9.2960e+02,1.1560e-06
9.2980e+02,1.1750e-06
9.3000e+02,1.2020e-06
9.3020e+02,1.2120e-06
9.3040e+02,1.2190e-06
9.3060e+02,1.2370e-06
9.3080e+02,1.2450e-06
9.3100e+02,1.2490e-06
9.3120e+02,1.2530e-06
9.3140e+02,1.2480e-06
9.3160e+02,1.2600e-06
9.3180e+02,1.2690e-06
9.3200e+02,1.2620e-06
9.3220e+02,1.2730e-06
9.3240e+02,1.2820e-06
9.3260e+02,1.2820e-06
9.3280e+02,1.2960e-06
9.3300e+02,1.3120e-06
9.3320e+02,1.3340e-06
9.3340e+02,1.3630e-06
9.3360e+02,1.4000e-06
9.3380e+02,1.4310e-06
9.3400e+02,1.4570e-06
9.3420e+02,1.4940e-06
9.3440e+02,1.5300e-06
9.3460e+02,1.5660e-06
9.3480e+02,1.6070e-06
9.3500e+02,1.6590e-06
9.3520e+02,1.7100e-06
9.3540e+02,1.7640e-06
9.3560e+02,1.8150e-06
9.3580e+02,1.8670e-06
9.3600e+02,1.9230e-06
9.3620e+02,1.9910e-06
9.3640e+02,2.0580e-06
9.3660e+02,2.1200e-06
9.3680e+02,2.1730e-06
9.3700e+02,2.2280e-06
9.3720e+02,2.2720e-06
9.3740e+02,2.2990e-06
9.3760e+02,2.3120e-06
9.3780e+02,2.3330e-06
9.3800e+02,2.3590e-06
9.3820e+02,2.3960e-06
9.3840e+02,2.4290e-06
9.3860e+02,2.4450e-06
9.3880e+02,2.4770e-06
9.3900e+02,2.5340e-06
9.3920e+02,2.5820e-06
9.3940e+02,2.6320e-06
9.3960e+02,2.6980e-06
9.3980e+02,2.7750e-06
9.4000e+02,2.8810e-06
9.4020e+02,2.9500e-06
9.4040e+02,3.0240e-06
9.4060e+02,3.0940e-06
9.4080e+02,3.1890e-06
9.4100e+02,3.2720e-06
9.4120e+02,3.3040e-06
9.4140e+02,3.3240e-06
9.4160e+02,3.3830e-06
9.4180e+02,3.3980e-06
9.4200e+02,3.3770e-06
9.4220e+02,3.3480e-06
9.4240e+02,3.3030e-06
9.4260e+02,3.2460e-06
9.4280e+02,3.1430e-06
9.4300e+02,3.0940e-06
9.4320e+02,2.9870e-06
9.4340e+02,2.8790e-06
9.4360e+02,2.7810e-06
9.4380e+02,2.6780e-06
9.4400e+02,2.5900e-06
9.4420e+02,2.5170e-06
9.4440e+02,2.4460e-06
9.4460e+02,2.3590e-06
9.4480e+02,2.2960e-06
9.4500e+02,2.2430e-06
9.4520e+02,2.1960e-06
9.4540e+02,2.1470e-06
9.4560e+02,2.1010e-06
9.4580e+02,2.0500e-06
9.4600e+02,1.9950e-06
9.4620e+02,1.9280e-06
9.4640e+02,1.8810e-06
9.4660e+02,1.8370e-06
9.4680e+02,1.8030e-06
9.4700e+02,1.7420e-06
9.4720e+02,1.7080e-06
9.4740e+02,1.6810e-06
9.4760e+02,1.6550e-06
9.4780e+02,1.6320e-06
9.4800e+02,1.6120e-06
9.4820e+02,1.6000e-06
9.4840e+02,1.5920e-06
9.4860e+02,1.5880e-06
9.4880e+02,1.5970e-06
9.4900e+02,1.5970e-06
9.4920e+02,1.5930e-06
9.4940e+02,1.6000e-06
9.4960e+02,1.6060e-06
9.4980e+02,1.6020e-06
9.5000e+02,2.1430e-06
9.5020e+02,2.1530e-06
9.5040e+02,2.1775e-06
9.5060e+02,2.1945e-06
9.5080e+02,2.1800e-06
9.5100e+02,2.1770e-06
9.5120e+02,2.1830e-06
9.5140e+02,2.1940e-06
9.5160e+02,2.1990e-06
9.5180e+02,2.1885e-06
9.5200e+02,2.1700e-06
9.5220e+02,2.1625e-06
9.5240e+02,2.1675e-06
9.5260e+02,2.1525e-06
9.5280e+02,2.1240e-06
9.5300e+02,2.1055e-06
9.5320e+02,2.0825e-06
9.5340e+02,2.1005e-06
9.5360e+02,2.0830e-06
9.5380e+02,2.1120e-06
9.5400e+02,2.1290e-06
9.5420e+02,2.1515e-06
9.5440e+02,2.1705e-06
9.5460e+02,2.1790e-06
9.5480e+02,2.2215e-06
9.5500e+02,2.2675e-06
9.5520e+02,2.3130e-06
9.5540e+02,2.3770e-06
9.5560e+02,2.4245e-06
9.5580e+02,2.4920e-06
9.5600e+02,2.5270e-06
9.5620e+02,2.5660e-06
9.5640e+02,2.6105e-06
9.5660e+02,2.6250e-06
9.5680e+02,2.6545e-06
9.5700e+02,2.6805e-06
9.5720e+02,2.7225e-06
9.5740e+02,2.7385e-06
9.5760e+02,2.7905e-06
9.5780e+02,2.8455e-06
9.5800e+02,2.9020e-06
9.5820e+02,2.9255e-06
9.5840e+02,2.9895e-06
9.5860e+02,3.0205e-06
9.5880e+02,3.0700e-06
9.5900e+02,3.0695e-06
9.5920e+02,3.0740e-06
9.5940e+02,3.0765e-06
9.5960e+02,3.0800e-06
9.5980e+02,3.0510e-06
9.6000e+02,3.0305e-06
9.6020e+02,3.0150e-06
9.6040e+02,2.9970e-06
9.6060e+02,2.9600e-06
9.6080e+02,2.9375e-06
9.6100e+02,2.9270e-06
9.6120e+02,2.8905e-06
9.6140e+02,2.8560e-06
9.6160e+02,2.8340e-06
9.6180e+02,2.8245e-06
9.6200e+02,2.8110e-06
9.6220e+02,2.8140e-06
9.6240e+02,2.8295e-06
9.6260e+02,2.8625e-06
9.6280e+02,2.8755e-06
9.6300e+02,2.9335e-06
9.6320e+02,2.9805e-06
9.6340e+02,3.0340e-06
9.6360e+02,3.0960e-06
9.6380e+02,3.1820e-06
9.6400e+02,3.2690e-06
9.6420e+02,3.3445e-06
9.6440e+02,3.4515e-06
9.6460e+02,3.5595e-06
9.6480e+02,3.6910e-06
9.6500e+02,3.8150e-06
9.6520e+02,3.9735e-06
9.6540e+02,4.1365e-06
9.6560e+02,4.3225e-06
9.6580e+02,4.5150e-06
9.6600e+02,4.7515e-06
9.6620e+02,5.0135e-06
9.6640e+02,5.2965e-06
9.6660e+02,5.6640e-06
9.6680e+02,6.0730e-06
9.6700e+02,6.5455e-06
9.6720e+02,7.0750e-06
9.6740e+02,7.7875e-06
9.6760e+02,8.6510e-06
9.6780e+02,9.6345e-06
9.6800e+02,1.0733e-05
9.6820e+02,1.1969e-05
9.6840e+02,1.3107e-05
9.6860e+02,1.4335e-05
9.6880e+02,1.5515e-05
9.6900e+02,1.6320e-05
9.6920e+02,1.6660e-05
9.6940e+02,1.6470e-05
9.6960e+02,1.5875e-05
9.6980e+02,1.4795e-05
9.7000e+02,1.3467e-05
9.7020e+02,1.2048e-05
9.7040e+02,1.0781e-05
9.7060e+02,9.4695e-06
9.7080e+02,8.3890e-06
9.7100e+02,7.4600e-06
9.7120e+02,6.6255e-06
9.7140e+02,5.9305e-06
9.7160e+02,5.3330e-06
9.7180e+02,4.8615e-06
9.7200e+02,4.4585e-06
9.7220e+02,4.1310e-06
9.7240e+02,3.8700e-06
9.7260e+02,3.6475e-06
9.7280e+02,3.4315e-06
9.7300e+02,3.2565e-06
9.7320e+02,3.1195e-06
9.7340e+02,3.0020e-06
9.7360e+02,2.8955e-06
9.7380e+02,2.8155e-06
9.7400e+02,2.7610e-06
9.7420e+02,2.7125e-06
9.7440e+02,2.6720e-06
9.7460e+02,2.6460e-06
9.7480e+02,2.6465e-06
9.7500e+02,2.6335e-06
9.7520e+02,2.6365e-06
9.7540e+02,2.6620e-06
9.7560e+02,2.6915e-06
9.7580e+02,2.7325e-06
9.7600e+02,2.7750e-06
9.7620e+02,2.8390e-06
9.7640e+02,2.9120e-06
9.7660e+02,2.9880e-06
9.7680e+02,3.0745e-06
9.7700e+02,3.2045e-06
9.7720e+02,3.3240e-06
9.7740e+02,3.4265e-06
9.7760e+02,3.5585e-06
9.7780e+02,3.6760e-06
9.7800e+02,3.7675e-06
9.7820e+02,3.8625e-06
9.7840e+02,3.9605e-06
9.7860e+02,4.0260e-06
9.7880e+02,4.0715e-06
9.7900e+02,4.1295e-06
9.7920e+02,4.2195e-06
9.7940e+02,4.2665e-06
9.7960e+02,4.2885e-06
9.7980e+02,4.3085e-06
9.8000e+02,4.3435e-06
9.8020e+02,4.3395e-06
9.8040e+02,4.3250e-06
9.8060e+02,4.3240e-06
9.8080e+02,4.3030e-06
9.8100e+02,4.2730e-06
9.8120e+02,4.2675e-06
9.8140e+02,4.2870e-06
9.8160e+02,4.2800e-06
9.8180e+02,4.2750e-06
9.8200e+02,4.2905e-06
9.8220e+02,4.2980e-06
9.8240e+02,4.2740e-06
9.8260e+02,4.2460e-06
9.8280e+02,4.2225e-06
9.8300e+02,4.1855e-06
9.8320e+02,4.1175e-06
9.8340e+02,4.0785e-06
9.8360e+02,4.0510e-06
9.8380e+02,4.0090e-06
9.8400e+02,3.9695e-06
9.8420e+02,3.9440e-06
9.8440e+02,3.9125e-06
9.8460e+02,3.8640e-06
9.8480e+02,3.8355e-06
9.8500e+02,3.8430e-06
9.8520e+02,3.8430e-06
9.8540e+02,3.8385e-06
9.8560e+02,3.8470e-06
9.8580e+02,3.8715e-06
9.8600e+02,3.8795e-06
9.8620e+02,3.8790e-06
9.8640e+02,3.8930e-06
9.8660e+02,3.8995e-06
9.8680e+02,3.8850e-06
9.8700e+02,3.8990e-06
9.8720e+02,3.9170e-06
9.8740e+02,3.9330e-06
9.8760e+02,3.9065e-06
9.8780e+02,3.8825e-06
9.8800e+02,3.8710e-06
9.8820e+02,3.8540e-06
9.8840e+02,3.8245e-06
9.8860e+02,3.8100e-06
9.8880e+02,3.8005e-06
9.8900e+02,3.7615e-06
9.8920e+02,3.7300e-06
9.8940e+02,3.7395e-06
9.8960e+02,3.7655e-06
9.8980e+02,3.7475e-06
9.9000e+02,3.7290e-06
9.9020e+02,3.7410e-06
9.9040e+02,3.7365e-06
9.9060e+02,3.7605e-06
9.9080e+02,3.7815e-06
9.9100e+02,3.7930e-06
9.9120e+02,3.8110e-06
9.9140e+02,3.8420e-06
9.9160e+02,3.8930e-06
9.9180e+02,3.9265e-06
9.9200e+02,3.9465e-06
9.9220e+02,4.0035e-06
9.9240e+02,4.0765e-06
9.9260e+02,4.1465e-06
9.9280e+02,4.2195e-06
9.9300e+02,4.3145e-06
9.9320e+02,4.3655e-06
9.9340e+02,4.4365e-06
9.9360e+02,4.4955e-06
9.9380e+02,4.5530e-06
9.9400e+02,4.6000e-06
9.9420e+02,4.6530e-06
9.9440e+02,4.7000e-06
9.9460e+02,4.7385e-06
9.9480e+02,4.7695e-06
9.9500e+02,4.8020e-06
9.9520e+02,4.8450e-06
9.9540e+02,4.8855e-06
9.9560e+02,4.9195e-06
9.9580e+02,4.9840e-06
9.9600e+02,5.0610e-06
9.9620e+02,5.1395e-06
9.9640e+02,5.2025e-06
9.9660e+02,5.2980e-06
9.9680e+02,5.4055e-06
9.9700e+02,5.5010e-06
9.9720e+02,5.6175e-06
9.9740e+02,5.7480e-06
9.9760e+02,5.8635e-06
9.9780e+02,5.9640e-06
9.9800e+02,6.1040e-06
9.9820e+02,6.2190e-06
9.9840e+02,6.3120e-06
9.9860e+02,6.4035e-06
9.9880e+02,6.5155e-06
9.9900e+02,6.6230e-06
9.9920e+02,6.7350e-06
9.9940e+02,6.8550e-06
9.9960e+02,6.9745e-06
9.9980e+02,7.0265e-06
1.0000e+03,8.6990e-06
1.0002e+03,8.7570e-06
1.0004e+03,8.8110e-06
1.0006e+03,8.7880e-06
1.0008e+03,8.7330e-06
1.0010e+03,8.6890e-06
1.0012e+03,8.6950e-06
1.0014e+03,8.6140e-06
1.0016e+03,8.5160e-06
1.0018e+03,8.4540e-06
1.0020e+03,8.4160e-06
1.0022e+03,8.3480e-06
1.0024e+03,8.3210e-06
1.0026e+03,8.4020e-06
1.0028e+03,8.5070e-06
1.0030e+03,8.5510e-06
1.0032e+03,8.6390e-06
1.0034e+03,8.7830e-06
1.0036e+03,8.8700e-06
1.0038e+03,8.9470e-06
1.0040e+03,9.1050e-06
1.0042e+03,9.2850e-06
1.0044e+03,9.4150e-06
1.0046e+03,9.5460e-06
1.0048e+03,9.7030e-06
1.0050e+03,9.8210e-06
1.0052e+03,9.8610e-06
1.0054e+03,9.9430e-06
1.0056e+03,1.0070e-05
1.0058e+03,1.0120e-05
1.0060e+03,1.0110e-05
1.0062e+03,1.0190e-05
1.0064e+03,1.0250e-05
1.0066e+03,1.0250e-05
1.0068e+03,1.0230e-05
1.0070e+03,1.0260e-05
1.0072e+03,1.0250e-05
1.0074e+03,1.0150e-05
1.0076e+03,1.0070e-05
1.0078e+03,1.0030e-05
1.0080e+03,9.8950e-06
1.0082e+03,9.6860e-06
1.0084e+03,9.5740e-06
1.0086e+03,9.4940e-06
1.0088e+03,9.3260e-06
1.0090e+03,9.1470e-06
1.0092e+03,9.0700e-06
1.0094e+03,8.9620e-06
1.0096e+03,8.8050e-06
1.0098e+03,8.6870e-06
1.0100e+03,8.6080e-06
1.0102e+03,8.5400e-06
1.0104e+03,8.4660e-06
1.0106e+03,8.4700e-06
1.0108e+03,8.4930e-06
1.0110e+03,8.4680e-06
1.0112e+03,8.4250e-06
1.0114e+03,8.4160e-06
1.0116e+03,8.3500e-06
1.0118e+03,8.3140e-06
1.0120e+03,8.3620e-06
1.0122e+03,8.4640e-06
1.0124e+03,8.4860e-06
1.0126e+03,8.4810e-06
1.0128e+03,8.4290e-06
1.0130e+03,8.4080e-06
1.0132e+03,8.3890e-06
1.0134e+03,8.3210e-06
1.0136e+03,8.3180e-06
1.0138e+03,8.2740e-06
1.0140e+03,8.1760e-06
1.0142e+03,8.1220e-06
1.0144e+03,8.0980e-06
1.0146e+03,8.0740e-06
1.0148e+03,8.0720e-06
1.0150e+03,8.1140e-06
1.0152e+03,8.1060e-06
1.0154e+03,8.0660e-06
1.0156e+03,8.0890e-06
1.0158e+03,8.0810e-06
1.0160e+03,8.0550e-06
1.0162e+03,8.1110e-06
1.0164e+03,8.2790e-06
1.0166e+03,8.3900e-06
1.0168e+03,8.3890e-06
1.0170e+03,8.4450e-06
1.0172e+03,8.6050e-06
1.0174e+03,8.7210e-06
1.0176e+03,8.8020e-06
1.0178e+03,8.9130e-06
1.0180e+03,9.1410e-06
1.0182e+03,9.4050e-06
1.0184e+03,9.6300e-06
1.0186e+03,9.9360e-06
1.0188e+03,1.0260e-05
1.0190e+03,1.0470e-05
1.0192e+03,1.0690e-05
1.0194e+03,1.1050e-05
1.0196e+03,1.1420e-05
1.0198e+03,1.1710e-05
1.0200e+03,1.2050e-05
1.0202e+03,1.2540e-05
1.0204e+03,1.2940e-05
1.0206e+03,1.3300e-05
1.0208e+03,1.3840e-05
1.0210e+03,1.4440e-05
1.0212e+03,1.5050e-05
1.0214e+03,1.5690e-05
1.0216e+03,1.6540e-05
1.0218e+03,1.7470e-05
1.0220e+03,1.8350e-05
1.0222e+03,1.9290e-05
1.0224e+03,2.0300e-05
1.0226e+03,2.1120e-05
1.0228e+03,2.1900e-05
1.0230e+03,2.2880e-05
1.0232e+03,2.3810e-05
1.0234e+03,2.4530e-05
1.0236e+03,2.5400e-05
1.0238e+03,2.6450e-05
1.0240e+03,2.7290e-05
1.0242e+03,2.7970e-05
1.0244e+03,2.8640e-05
1.0246e+03,2.9410e-05
1.0248e+03,3.0010e-05
1.0250e+03,3.0530e-05
1.0252e+03,3.1310e-05
1.0254e+03,3.2000e-05
1.0256e+03,3.2310e-05
1.0258e+03,3.2590e-05
1.0260e+03,3.2940e-05
1.0262e+03,3.3170e-05
1.0264e+03,3.3070e-05
1.0266e+03,3.3250e-05
1.0268e+03,3.3580e-05
1.0270e+03,3.3920e-05
1.0272e+03,3.4350e-05
1.0274e+03,3.5380e-05
1.0276e+03,3.6540e-05
1.0278e+03,3.7520e-05
1.0280e+03,3.8750e-05
1.0282e+03,4.0180e-05
1.0284e+03,4.2000e-05
1.0286e+03,4.4170e-05
1.0288e+03,4.6080e-05
1.0290e+03,4.7840e-05
1.0292e+03,4.9970e-05
1.0294e+03,5.2050e-05
1.0296e+03,5.3450e-05
1.0298e+03,5.4630e-05
1.0300e+03,5.5600e-05
1.0302e+03,5.6030e-05
1.0304e+03,5.5430e-05
1.0306e+03,5.4590e-05
1.0308e+03,5.3440e-05
1.0310e+03,5.1500e-05
1.0312e+03,4.9000e-05
1.0314e+03,4.6520e-05
1.0316e+03,4.4060e-05
1.0318e+03,4.1160e-05
1.0320e+03,3.8530e-05
1.0322e+03,3.6140e-05
1.0324e+03,3.3830e-05
1.0326e+03,3.1410e-05
1.0328e+03,2.9280e-05
1.0330e+03,2.7300e-05
1.0332e+03,2.5500e-05
1.0334e+03,2.3930e-05
1.0336e+03,2.2540e-05
1.0338e+03,2.1540e-05
1.0340e+03,2.0310e-05
1.0342e+03,1.9040e-05
1.0344e+03,1.8020e-05
1.0346e+03,1.7200e-05
1.0348e+03,1.6240e-05
1.0350e+03,1.5450e-05
1.0352e+03,1.4800e-05
1.0354e+03,1.4090e-05
1.0356e+03,1.3430e-05
1.0358e+03,1.2960e-05
1.0360e+03,1.2530e-05
1.0362e+03,1.2010e-05
1.0364e+03,1.1570e-05
1.0366e+03,1.1250e-05
1.0368e+03,1.0910e-05
1.0370e+03,1.0530e-05
1.0372e+03,1.0260e-05
1.0374e+03,1.0040e-05
1.0376e+03,9.7620e-06
1.0378e+03,9.5040e-06
1.0380e+03,9.3590e-06
1.0382e+03,9.1790e-06
1.0384e+03,8.9740e-06
1.0386e+03,8.8110e-06
1.0388e+03,8.7010e-06
1.0390e+03,8.5250e-06
1.0392e+03,8.3390e-06
1.0394e+03,8.2210e-06
1.0396e+03,8.0520e-06
1.0398e+03,7.8490e-06
1.0400e+03,7.7340e-06
1.0402e+03,7.5910e-06
1.0404e+03,7.3900e-06
1.0406e+03,7.2170e-06
1.0408e+03,7.0740e-06
1.0410e+03,6.9270e-06
1.0412e+03,6.7580e-06
1.0414e+03,6.6280e-06
1.0416e+03,6.5650e-06
1.0418e+03,6.4460e-06
1.0420e+03,6.3160e-06
1.0422e+03,6.2340e-06
1.0424e+03,6.1540e-06
1.0426e+03,6.0460e-06
1.0428e+03,5.9420e-06
1.0430e+03,5.9250e-06
1.0432e+03,5.8540e-06
1.0434e+03,5.7550e-06
1.0436e+03,5.7320e-06
1.0438e+03,5.7430e-06
1.0440e+03,5.7580e-06
1.0442e+03,5.7740e-06
1.0444e+03,5.8280e-06
1.0446e+03,5.8850e-06
1.0448e+03,5.9080e-06
1.0450e+03,5.9640e-06
1.0452e+03,6.0550e-06
1.0454e+03,6.1460e-06
1.0456e+03,6.2240e-06
1.0458e+03,6.3380e-06
1.0460e+03,6.4860e-06
1.0462e+03,6.5670e-06
1.0464e+03,6.6560e-06
1.0466e+03,6.8570e-06
1.0468e+03,6.9350e-06
1.0470e+03,7.0210e-06
1.0472e+03,7.1490e-06
1.0474e+03,7.2420e-06
1.0476e+03,7.2920e-06
1.0478e+03,7.3790e-06
1.0480e+03,7.5180e-06
1.0482e+03,7.5590e-06
1.0484e+03,7.5730e-06
1.0486e+03,7.6450e-06
1.0488e+03,7.6440e-06
1.0490e+03,7.5810e-06
1.0492e+03,7.5290e-06
1.0494e+03,7.5230e-06
1.0496e+03,7.4850e-06
1.0498e+03,7.3630e-06
1.0500e+03,7.2660e-06
1.0502e+03,7.1510e-06
1.0504e+03,6.9350e-06
1.0506e+03,6.7150e-06
1.0508e+03,6.5620e-06
1.0510e+03,6.4100e-06
1.0512e+03,6.1920e-06
1.0514e+03,5.9930e-06
1.0516e+03,5.7900e-06
1.0518e+03,5.6170e-06
1.0520e+03,5.3730e-06
1.0522e+03,5.1590e-06
1.0524e+03,4.9640e-06
1.0526e+03,4.7760e-06
1.0528e+03,4.5760e-06
1.0530e+03,4.4280e-06
1.0532e+03,4.3070e-06
1.0534e+03,4.1440e-06
1.0536e+03,4.0160e-06
1.0538e+03,3.9190e-06
1.0540e+03,3.7950e-06
1.0542e+03,3.6700e-06
1.0544e+03,3.5860e-06
1.0546e+03,3.5040e-06
1.0548e+03,3.4090e-06
1.0550e+03,3.3030e-06
1.0552e+03,3.2410e-06
1.0554e+03,3.1600e-06
1.0556e+03,3.0540e-06
1.0558e+03,2.9810e-06
1.0560e+03,2.9350e-06
1.0562e+03,2.8750e-06
1.0564e+03,2.8110e-06
1.0566e+03,2.7690e-06
1.0568e+03,2.7370e-06
1.0570e+03,2.6820e-06
1.0572e+03,2.6220e-06
1.0574e+03,2.6000e-06
1.0576e+03,2.5440e-06
1.0578e+03,2.4830e-06
1.0580e+03,2.4450e-06
1.0582e+03,2.4060e-06
1.0584e+03,2.3810e-06
1.0586e+03,2.3380e-06
1.0588e+03,2.3000e-06
1.0590e+03,2.2680e-06
1.0592e+03,2.2210e-06
1.0594e+03,2.1820e-06
1.0596e+03,2.1710e-06
1.0598e+03,2.1380e-06
1.0600e+03,2.0850e-06
1.0602e+03,2.0470e-06
1.0604e+03,2.0150e-06
1.0606e+03,1.9800e-06
1.0608e+03,1.9310e-06
1.0610e+03,1.9240e-06
1.0612e+03,1.8960e-06
1.0614e+03,1.8670e-06
1.0616e+03,1.8540e-06
1.0618e+03,1.8120e-06
1.0620e+03,1.7950e-06
1.0622e+03,1.7690e-06
1.0624e+03,1.7410e-06
1.0626e+03,1.7230e-06
1.0628e+03,1.6910e-06
1.0630e+03,1.6890e-06
1.0632e+03,1.6470e-06
1.0634e+03,1.6290e-06
1.0636e+03,1.6150e-06
1.0638e+03,1.5930e-06
1.0640e+03,1.5810e-06
1.0642e+03,1.5580e-06
1.0644e+03,1.5620e-06
1.0646e+03,1.5350e-06
1.0648e+03,1.5210e-06
1.0650e+03,1.5200e-06
1.0652e+03,1.4930e-06
1.0654e+03,1.4910e-06
1.0656e+03,1.4920e-06
1.0658e+03,1.4700e-06
1.0660e+03,1.4540e-06
1.0662e+03,1.4470e-06
1.0664e+03,1.4390e-06
1.0666e+03,1.4320e-06
1.0668e+03,1.4280e-06
1.0670e+03,1.3970e-06
1.0672e+03,1.3960e-06
1.0674e+03,1.3810e-06
1.0676e+03,1.3810e-06
1.0678e+03,1.3330e-06
1.0680e+03,1.3420e-06
1.0682e+03,1.3290e-06
1.0684e+03,1.3200e-06
1.0686e+03,1.3070e-06
1.0688e+03,1.2980e-06
1.0690e+03,1.2990e-06
1.0692e+03,1.2690e-06
1.0694e+03,1.2720e-06
1.0696e+03,1.2640e-06
1.0698e+03,1.2500e-06
1.0700e+03,1.2410e-06
1.0702e+03,1.2300e-06
1.0704e+03,1.2270e-06
1.0706e+03,1.2280e-06
1.0708e+03,1.2190e-06
1.0710e+03,1.2190e-06
1.0712e+03,1.1980e-06
1.0714e+03,1.1870e-06
1.0716e+03,1.1750e-06
1.0718e+03,1.1750e-06
1.0720e+03,1.1650e-06
1.0722e+03,1.1720e-06
1.0724e+03,1.1680e-06
1.0726e+03,1.1520e-06
1.0728e+03,1.1400e-06
1.0730e+03,1.1300e-06
1.0732e+03,1.1250e-06
1.0734e+03,1.1190e-06
1.0736e+03,1.1160e-06
1.0738e+03,1.1090e-06
1.0740e+03,1.1130e-06
1.0742e+03,1.1130e-06
1.0744e+03,1.1070e-06
1.0746e+03,1.1090e-06
1.0748e+03,1.1120e-06
1.0750e+03,1.1010e-06
1.0752e+03,1.0910e-06
1.0754e+03,1.0870e-06
1.0756e+03,1.0940e-06
1.0758e+03,1.0850e-06
1.0760e+03,1.0840e-06
1.0762e+03,1.0630e-06
1.0764e+03,1.0540e-06
1.0766e+03,1.0450e-06
1.0768e+03,1.0390e-06
1.0770e+03,1.0300e-06
1.0772e+03,1.0290e-06
1.0774e+03,1.0230e-06
1.0776e+03,1.0050e-06
1.0778e+03,9.9990e-07
1.0780e+03,9.8820e-07
1.0782e+03,9.7860e-07
1.0784e+03,9.6690e-07
1.0786e+03,9.5370e-07
1.0788e+03,9.3690e-07
1.0790e+03,9.3590e-07
1.0792e+03,9.3170e-07
1.0794e+03,9.1530e-07
1.0796e+03,9.0180e-07
1.0798e+03,8.9410e-07
1.0800e+03,8.9310e-07
1.0802e+03,8.7620e-07
1.0804e+03,8.6300e-07
1.0806e+03,8.6360e-07
1.0808e+03,8.6230e-07
1.0810e+03,8.4910e-07
1.0812e+03,8.4350e-07
1.0814e+03,8.3470e-07
1.0816e+03,8.3610e-07
1.0818e+03,8.2190e-07
1.0820e+03,8.1670e-07
1.0822e+03,8.0920e-07
1.0824e+03,8.0950e-07
1.0826e+03,8.0270e-07
1.0828e+03,7.9060e-07
1.0830e+03,7.8840e-07
1.0832e+03,7.8310e-07
1.0834e+03,7.7610e-07
1.0836e+03,7.6790e-07
1.0838e+03,7.6520e-07
1.0840e+03,7.6320e-07
1.0842e+03,7.5760e-07
1.0844e+03,7.4990e-07
1.0846e+03,7.4890e-07
1.0848e+03,7.4950e-07
1.0850e+03,7.3650e-07
1.0852e+03,7.3110e-07
1.0854e+03,7.2960e-07
1.0856e+03,7.2530e-07
1.0858e+03,7.1850e-07
1.0860e+03,7.1830e-07
1.0862e+03,7.1660e-07
1.0864e+03,7.1040e-07
1.0866e+03,7.0630e-07
1.0868e+03,6.8970e-07
1.0870e+03,6.8710e-07
1.0872e+03,6.8220e-07
1.0874e+03,6.7780e-07
1.0876e+03,6.7300e-07
1.0878e+03,6.6760e-07
1.0880e+03,6.6350e-07
1.0882e+03,6.6130e-07
1.0884e+03,6.5050e-07
1.0886e+03,6.4420e-07
1.0888e+03,6.3810e-07
1.0890e+03,6.4330e-07
1.0892e+03,6.4100e-07
1.0894e+03,6.3570e-07
1.0896e+03,6.2980e-07
1.0898e+03,6.2420e-07
1.0900e+03,6.1310e-07
1.0902e+03,6.1130e-07
1.0904e+03,6.0390e-07
1.0906e+03,6.0650e-07
1.0908e+03,5.9550e-07
1.0910e+03,5.9320e-07
1.0912e+03,5.9000e-07
1.0914e+03,5.8780e-07
1.0916e+03,5.8460e-07
1.0918e+03,5.8010e-07
1.0920e+03,5.7490e-07
1.0922e+03,5.7640e-07
1.0924e+03,5.7270e-07
1.0926e+03,5.6480e-07
1.0928e+03,5.6480e-07
1.0930e+03,5.5790e-07
1.0932e+03,5.5930e-07
1.0934e+03,5.5150e-07
1.0936e+03,5.4550e-07
1.0938e+03,5.4250e-07
1.0940e+03,5.3600e-07
1.0942e+03,5.3270e-07
1.0944e+03,5.3370e-07
1.0946e+03,5.2870e-07
1.0948e+03,5.2110e-07
1.0950e+03,5.2210e-07
1.0952e+03,5.1970e-07
1.0954e+03,5.0900e-07
1.0956e+03,5.0400e-07
1.0958e+03,4.9740e-07
1.0960e+03,4.9140e-07
1.0962e+03,4.8300e-07
1.0964e+03,4.8080e-07
1.0966e+03,4.7610e-07
1.0968e+03,4.7180e-07
1.0970e+03,4.6820e-07
1.0972e+03,4.6250e-07
1.0974e+03,4.5820e-07
1.0976e+03,4.5270e-07
1.0978e+03,4.4920e-07
1.0980e+03,4.3710e-07
1.0982e+03,4.3740e-07
1.0984e+03,4.3430e-07
1.0986e+03,4.2280e-07
1.0988e+03,4.1770e-07
1.0990e+03,4.1380e-07
1.0992e+03,4.0970e-07
1.0994e+03,4.0230e-07
1.0996e+03,3.9900e-07
1.0998e+03,3.9270e-07
1.1000e+03,3.8570e-07
1.1002e+03,3.8510e-07
1.1004e+03,3.8270e-07
1.1006e+03,3.7410e-07
1.1008e+03,3.7270e-07
1.1010e+03,3.6600e-07
1.1012e+03,3.6420e-07
1.1014e+03,3.6050e-07
1.1016e+03,3.4980e-07
1.1018e+03,3.4710e-07
1.1020e+03,3.4550e-07
1.1022e+03,3.3950e-07
1.1024e+03,3.3620e-07
1.1026e+03,3.3200e-07
1.1028e+03,3.2770e-07
1.1030e+03,3.2530e-07
1.1032e+03,3.2130e-07
1.1034e+03,3.1780e-07
1.1036e+03,3.1350e-07
1.1038e+03,3.1210e-07
1.1040e+03,3.0710e-07
1.1042e+03,3.0370e-07
1.1044e+03,3.0410e-07
1.1046e+03,3.0080e-07
1.1048e+03,2.9700e-07
1.1050e+03,2.9260e-07
1.1052e+03,2.9190e-07
1.1054e+03,2.8880e-07
1.1056e+03,2.8440e-07
1.1058e+03,2.8260e-07
1.1060e+03,2.8120e-07
1.1062e+03,2.7760e-07
1.1064e+03,2.7230e-07
1.1066e+03,2.7430e-07
1.1068e+03,2.7280e-07
1.1070e+03,2.6990e-07
1.1072e+03,2.6720e-07
1.1074e+03,2.6660e-07
1.1076e+03,2.6810e-07
1.1078e+03,2.6140e-07
1.1080e+03,2.5930e-07
1.1082e+03,2.5560e-07
1.1084e+03,2.5420e-07
1.1086e+03,2.5380e-07
1.1088e+03,2.5200e-07
1.1090e+03,2.4850e-07
1.1092e+03,2.4800e-07
1.1094e+03,2.4790e-07
1.1096e+03,2.4580e-07
1.1098e+03,2.4210e-07
1.1100e+03,2.4220e-07
1.1102e+03,2.3860e-07
1.1104e+03,2.3700e-07
1.1106e+03,2.3600e-07
1.1108e+03,2.3410e-07
1.1110e+03,2.3150e-07
1.1112e+03,2.3220e-07
1.1114e+03,2.2780e-07
1.1116e+03,2.2690e-07
1.1118e+03,2.2630e-07
1.1120e+03,2.2380e-07
1.1122e+03,2.2220e-07
1.1124e+03,2.2080e-07
1.1126e+03,2.1840e-07
1.1128e+03,2.1530e-07
1.1130e+03,2.1760e-07
1.1132e+03,2.1470e-07
1.1134e+03,2.1120e-07
1.1136e+03,2.1000e-07
1.1138e+03,2.1290e-07
1.1140e+03,2.0680e-07
1.1142e+03,2.0550e-07
1.1144e+03,2.0220e-07
1.1146e+03,2.0190e-07
1.1148e+03,1.9950e-07
1.1150e+03,1.9760e-07
1.1152e+03,1.9570e-07
1.1154e+03,1.9550e-07
1.1156e+03,1.9430e-07
1.1158e+03,1.8880e-07
1.1160e+03,1.8800e-07
1.1162e+03,1.8750e-07
1.1164e+03,1.8540e-07
1.1166e+03,1.7960e-07
1.1168e+03,1.8310e-07
1.1170e+03,1.7690e-07
1.1172e+03,1.7490e-07
1.1174e+03,1.7620e-07
1.1176e+03,1.7100e-07
1.1178e+03,1.7080e-07
1.1180e+03,1.6790e-07
1.1182e+03,1.6790e-07
1.1184e+03,1.6420e-07
1.1186e+03,1.6410e-07
1.1188e+03,1.6260e-07
1.1190e+03,1.6250e-07
1.1192e+03,1.5890e-07
1.1194e+03,1.5780e-07
1.1196e+03,1.5610e-07
1.1198e+03,1.5340e-07
1.1200e+03,1.5380e-07
1.1202e+03,1.5220e-07
1.1204e+03,1.5190e-07
1.1206e+03,1.4960e-07
1.1208e+03,1.4780e-07
1.1210e+03,1.4490e-07
1.1212e+03,1.4190e-07
1.1214e+03,1.4280e-07
1.1216e+03,1.3980e-07
1.1218e+03,1.3930e-07
1.1220e+03,1.3710e-07
1.1222e+03,1.3700e-07
1.1224e+03,1.3510e-07
1.1226e+03,1.3310e-07
1.1228e+03,1.3140e-07
1.1230e+03,1.2780e-07
1.1232e+03,1.2710e-07
1.1234e+03,1.2580e-07
1.1236e+03,1.2300e-07
1.1238e+03,1.2270e-07
1.1240e+03,1.2000e-07
1.1242e+03,1.2190e-07
1.1244e+03,1.1870e-07
1.1246e+03,1.1310e-07
1.1248e+03,1.1360e-07
1.1250e+03,1.1310e-07
1.1252e+03,1.0760e-07
1.1254e+03,1.0840e-07
1.1256e+03,1.1000e-07
1.1258e+03,1.0770e-07
1.1260e+03,1.0650e-07
1.1262e+03,1.0520e-07
1.1264e+03,1.0400e-07
1.1266e+03,1.0310e-07
1.1268e+03,1.0210e-07
1.1270e+03,1.0300e-07
1.1272e+03,1.0120e-07
1.1274e+03,9.6550e-08
1.1276e+03,9.6280e-08
1.1278e+03,9.5990e-08
1.1280e+03,9.4590e-08
1.1282e+03,9.5490e-08
1.1284e+03,9.4220e-08
1.1286e+03,9.4570e-08
1.1288e+03,9.3130e-08
1.1290e+03,9.3180e-08
1.1292e+03,9.2430e-08
1.1294e+03,9.1300e-08
1.1296e+03,8.9900e-08
1.1298e+03,8.8350e-08
1.1300e+03,8.6960e-08
1.1302e+03,8.8260e-08
1.1304e+03,8.5940e-08
1.1306e+03,8.5870e-08
1.1308e+03,8.5090e-08
1.1310e+03,8.4130e-08
1.1312e+03,8.3690e-08
1.1314e+03,8.2890e-08
1.1316e+03,8.2220e-08
1.1318e+03,8.2560e-08
1.1320e+03,8.1060e-08
1.1322e+03,7.8620e-08
1.1324e+03,8.0360e-08
1.1326e+03,7.8230e-08
1.1328e+03,7.7970e-08
1.1330e+03,7.6290e-08
1.1332e+03,7.6430e-08
1.1334e+03,7.3750e-08
1.1336e+03,7.3620e-08
1.1338e+03,7.3100e-08
1.1340e+03,7.2440e-08
1.1342e+03,7.0580e-08
1.1344e+03,6.9280e-08
1.1346e+03,7.0090e-08
1.1348e+03,6.8930e-08
1.1350e+03,6.6830e-08
1.1352e+03,6.7530e-08
1.1354e+03,6.7450e-08
1.1356e+03,6.8950e-08
1.1358e+03,6.7040e-08
1.1360e+03,6.3180e-08
1.1362e+03,6.3330e-08
1.1364e+03,6.3940e-08
1.1366e+03,6.3510e-08
1.1368e+03,6.4950e-08
1.1370e+03,6.4280e-08
1.1372e+03,6.2050e-08
1.1374e+03,6.1730e-08
1.1376e+03,6.1440e-08
1.1378e+03,6.1020e-08
1.1380e+03,6.0520e-08
1.1382e+03,6.0730e-08
1.1384e+03,6.0430e-08
1.1386e+03,5.9280e-08
1.1388e+03,6.0500e-08
1.1390e+03,5.7370e-08
1.1392e+03,5.7210e-08
1.1394e+03,5.7780e-08
1.1396e+03,5.6230e-08
1.1398e+03,5.4510e-08
1.1400e+03,5.5010e-08
1.1402e+03,5.4120e-08
1.1404e+03,5.4170e-08
1.1406e+03,5.3990e-08
1.1408e+03,5.2310e-08
1.1410e+03,5.2840e-08
1.1412e+03,5.1850e-08
1.1414e+03,5.1240e-08
1.1416e+03,5.0420e-08
1.1418e+03,5.1820e-08
1.1420e+03,5.1790e-08
1.1422e+03,4.8960e-08
1.1424e+03,4.8680e-08
1.1426e+03,4.6100e-08
1.1428e+03,4.7460e-08
1.1430e+03,4.7640e-08
1.1432e+03,4.5450e-08
1.1434e+03,4.5650e-08
1.1436e+03,4.5180e-08
1.1438e+03,4.3930e-08
1.1440e+03,4.3790e-08
1.1442e+03,4.3210e-08
1.1444e+03,4.1890e-08
1.1446e+03,4.4130e-08
1.1448e+03,4.0730e-08
1.1450e+03,4.2310e-08
1.1452e+03,4.2350e-08
1.1454e+03,4.0540e-08
1.1456e+03,3.9610e-08
1.1458e+03,4.0740e-08
1.1460e+03,3.9450e-08
1.1462e+03,3.8720e-08
1.1464e+03,3.7220e-08
1.1466e+03,3.6400e-08
1.1468e+03,3.6130e-08
1.1470e+03,3.6160e-08
1.1472e+03,3.6660e-08
1.1474e+03,3.5010e-08
1.1476e+03,3.3580e-08
1.1478e+03,3.5800e-08
1.1480e+03,3.3260e-08
1.1482e+03,3.4240e-08
1.1484e+03,3.3950e-08
1.1486e+03,3.5170e-08
1.1488e+03,3.4980e-08
1.1490e+03,3.1830e-08
1.1492e+03,3.0930e-08
1.1494e+03,3.3110e-08
1.1496e+03,3.2090e-08
1.1498e+03,3.2110e-08
1.1500e+03,3.0590e-08
