IstTemp[K]=293.00

 800.000,5.208E-08
 800.350,4.434E-08
 800.700,5.268E-08
 801.050,5.048E-08
 801.400,5.018E-08
 801.750,5.078E-08
 802.100,5.256E-08
 802.450,4.651E-08
 802.800,5.184E-08
 803.150,5.155E-08
 803.500,4.345E-08
 803.850,4.906E-08
 804.200,5.616E-08
 804.550,4.611E-08
 804.900,5.957E-08
 805.250,5.691E-08
 805.600,6.016E-08
 805.950,5.472E-08
 806.300,5.296E-08
 806.650,5.325E-08
 807.000,6.208E-08
 807.350,6.311E-08
 807.700,6.370E-08
 808.050,6.986E-08
 808.400,5.460E-08
 808.750,6.179E-08
 809.100,6.560E-08
 809.450,6.619E-08
 809.800,6.077E-08
 810.150,6.954E-08
 810.500,6.399E-08
 810.850,5.961E-08
 811.200,7.434E-08
 811.550,6.880E-08
 811.900,6.355E-08
 812.250,6.676E-08
 812.600,6.806E-08
 812.950,7.475E-08
 813.300,7.213E-08
 813.650,6.631E-08
 814.000,7.022E-08
 814.350,6.877E-08
 814.700,7.109E-08
 815.050,6.964E-08
 815.400,7.353E-08
 815.750,6.717E-08
 816.100,6.948E-08
 816.450,6.832E-08
 816.800,6.832E-08
 817.150,7.048E-08
 817.500,6.961E-08
 817.850,7.510E-08
 818.200,7.481E-08
 818.550,7.320E-08
 818.900,8.271E-08
 819.250,7.637E-08
 819.600,7.723E-08
 819.950,7.274E-08
 820.300,7.200E-08
 820.650,7.401E-08
 821.000,7.098E-08
 821.350,7.527E-08
 821.700,6.938E-08
 822.050,7.492E-08
 822.400,6.552E-08
 822.750,7.987E-08
 823.100,8.082E-08
 823.450,8.110E-08
 823.800,7.412E-08
 824.150,7.452E-08
 824.500,7.734E-08
 824.850,7.575E-08
 825.200,7.350E-08
 825.550,7.867E-08
 825.900,7.569E-08
 826.250,7.905E-08
 826.600,7.635E-08
 826.950,7.813E-08
 827.300,7.394E-08
 827.650,7.433E-08
 828.000,7.600E-08
 828.350,7.638E-08
 828.700,8.258E-08
 829.050,6.623E-08
 829.400,7.216E-08
 829.750,7.586E-08
 830.100,8.284E-08
 830.450,6.947E-08
 830.800,7.571E-08
 831.150,7.117E-08
 831.500,7.618E-08
 831.850,7.041E-08
 832.200,7.403E-08
 832.550,7.844E-08
 832.900,7.111E-08
 833.250,7.067E-08
 833.600,7.505E-08
 833.950,7.205E-08
 834.300,6.790E-08
 834.650,7.172E-08
 835.000,7.429E-08
 835.350,7.990E-08
 835.700,7.421E-08
 836.050,7.778E-08
 836.400,7.344E-08
 836.750,7.924E-08
 837.100,7.190E-08
 837.450,6.399E-08
 837.800,6.925E-08
 838.150,7.047E-08
 838.500,7.184E-08
 838.850,6.504E-08
 839.200,6.500E-08
 839.550,6.611E-08
 839.900,6.647E-08
 840.250,7.304E-08
 840.600,7.329E-08
 840.950,6.672E-08
 841.300,6.647E-08
 841.650,6.890E-08
 842.000,6.738E-08
 842.350,7.574E-08
 842.700,7.118E-08
 843.050,7.388E-08
 843.400,6.652E-08
 843.750,7.490E-08
 844.100,7.058E-08
 844.450,7.134E-08
 844.800,7.660E-08
 845.150,6.896E-08
 845.500,7.049E-08
 845.850,6.489E-08
 846.200,7.355E-08
 846.550,6.963E-08
 846.900,7.295E-08
 847.250,6.657E-08
 847.600,7.244E-08
 847.950,7.448E-08
 848.300,6.673E-08
 848.650,7.337E-08
 849.000,6.979E-08
 849.350,6.724E-08
 849.700,7.354E-08
 850.050,7.534E-08
 850.400,7.628E-08
 850.750,7.191E-08
 851.100,7.337E-08
 851.450,7.508E-08
 851.800,7.405E-08
 852.150,7.422E-08
 852.500,7.293E-08
 852.850,7.310E-08
 853.200,7.077E-08
 853.550,7.638E-08
 853.900,7.448E-08
 854.250,7.969E-08
 854.600,7.882E-08
 854.950,7.595E-08
 855.300,7.194E-08
 855.650,8.024E-08
 856.000,7.814E-08
 856.350,7.674E-08
 856.700,7.674E-08
 857.050,7.745E-08
 857.400,7.657E-08
 857.750,7.340E-08
 858.100,7.542E-08
 858.450,6.748E-08
 858.800,7.480E-08
 859.150,7.604E-08
 859.500,7.577E-08
 859.850,7.754E-08
 860.200,6.742E-08
 860.550,7.158E-08
 860.900,7.924E-08
 861.250,8.085E-08
 861.600,7.137E-08
 861.950,7.288E-08
 862.300,7.342E-08
 862.650,7.332E-08
 863.000,7.565E-08
 863.350,7.592E-08
 863.700,8.070E-08
 864.050,8.116E-08
 864.400,7.383E-08
 864.750,7.672E-08
 865.100,8.317E-08
 865.450,8.126E-08
 865.800,7.899E-08
 866.150,7.753E-08
 866.500,7.753E-08
 866.850,7.963E-08
 867.200,7.981E-08
 867.550,7.871E-08
 867.900,7.751E-08
 868.250,8.543E-08
 868.600,8.156E-08
 868.950,7.981E-08
 869.300,7.805E-08
 869.650,7.971E-08
 870.000,7.544E-08
 870.350,7.366E-08
 870.700,7.933E-08
 871.050,8.148E-08
 871.400,7.885E-08
 871.750,7.536E-08
 872.100,8.205E-08
 872.450,7.458E-08
 872.800,7.731E-08
 873.150,8.204E-08
 873.500,7.824E-08
 873.850,8.385E-08
 874.200,8.376E-08
 874.550,8.194E-08
 874.900,7.752E-08
 875.250,8.434E-08
 875.600,8.511E-08
 875.950,8.154E-08
 876.300,8.173E-08
 876.650,8.979E-08
 877.000,8.210E-08
 877.350,8.610E-08
 877.700,8.561E-08
 878.050,8.758E-08
 878.400,8.631E-08
 878.750,9.006E-08
 879.100,8.581E-08
 879.450,8.214E-08
 879.800,9.039E-08
 880.150,9.486E-08
 880.500,9.179E-08
 880.850,9.290E-08
 881.200,9.131E-08
 881.550,8.921E-08
 881.900,9.182E-08
 882.250,9.596E-08
 882.600,9.043E-08
 882.950,8.559E-08
 883.300,8.700E-08
 883.650,9.024E-08
 884.000,9.624E-08
 884.350,8.406E-08
 884.700,9.066E-08
 885.050,1.004E-07
 885.400,9.169E-08
 885.750,9.598E-08
 886.100,9.959E-08
 886.450,9.365E-08
 886.800,9.858E-08
 887.150,1.034E-07
 887.500,9.378E-08
 887.850,1.033E-07
 888.200,1.021E-07
 888.550,9.577E-08
 888.900,1.019E-07
 889.250,9.714E-08
 889.600,1.056E-07
 889.950,1.008E-07
 890.300,9.987E-08
 890.650,1.039E-07
 891.000,1.093E-07
 891.350,1.127E-07
 891.700,1.086E-07
 892.050,1.118E-07
 892.400,1.093E-07
 892.750,1.127E-07
 893.100,1.090E-07
 893.450,1.121E-07
 893.800,1.227E-07
 894.150,1.136E-07
 894.500,1.174E-07
 894.850,1.215E-07
 895.200,1.221E-07
 895.550,1.206E-07
 895.900,1.303E-07
 896.250,1.209E-07
 896.600,1.415E-07
 896.950,1.412E-07
 897.300,1.399E-07
 897.650,1.387E-07
 898.000,1.437E-07
 898.350,1.512E-07
 898.700,1.462E-07
 899.050,1.477E-07
 899.400,1.534E-07
 899.750,1.543E-07
 900.100,1.517E-07
 900.450,1.638E-07
 900.800,1.727E-07
 901.150,1.742E-07
 901.500,1.747E-07
 901.850,1.806E-07
 902.200,1.891E-07
 902.550,1.896E-07
 902.900,2.007E-07
 903.250,2.039E-07
 903.600,2.098E-07
 903.950,2.136E-07
 904.300,2.068E-07
 904.650,2.211E-07
 905.000,2.173E-07
 905.350,2.329E-07
 905.700,2.369E-07
 906.050,2.346E-07
 906.400,2.539E-07
 906.750,2.625E-07
 907.100,2.728E-07
 907.450,2.771E-07
 907.800,2.853E-07
 908.150,2.905E-07
 908.500,3.000E-07
 908.850,3.144E-07
 909.200,3.177E-07
 909.550,3.242E-07
 909.900,3.349E-07
 910.250,3.359E-07
 910.600,3.572E-07
 910.950,3.666E-07
 911.300,3.783E-07
 911.650,3.842E-07
 912.000,3.875E-07
 912.350,3.991E-07
 912.700,4.212E-07
 913.050,4.304E-07
 913.400,4.452E-07
 913.750,4.596E-07
 914.100,4.715E-07
 914.450,4.802E-07
 914.800,4.921E-07
 915.150,5.058E-07
 915.500,5.177E-07
 915.850,5.389E-07
 916.200,5.628E-07
 916.550,5.655E-07
 916.900,5.743E-07
 917.250,5.917E-07
 917.600,6.013E-07
 917.950,6.209E-07
 918.300,6.277E-07
 918.650,6.520E-07
 919.000,6.673E-07
 919.350,6.742E-07
 919.700,6.940E-07
 920.050,7.128E-07
 920.400,7.366E-07
 920.750,7.408E-07
 921.100,7.499E-07
 921.450,7.695E-07
 921.800,7.900E-07
 922.150,8.055E-07
 922.500,8.236E-07
 922.850,8.469E-07
 923.200,8.558E-07
 923.550,8.770E-07
 923.900,8.885E-07
 924.250,9.201E-07
 924.600,9.217E-07
 924.950,9.427E-07
 925.300,9.473E-07
 925.650,9.714E-07
 926.000,9.916E-07
 926.350,1.005E-06
 926.700,1.015E-06
 927.050,1.037E-06
 927.400,1.050E-06
 927.750,1.076E-06
 928.100,1.108E-06
 928.450,1.118E-06
 928.800,1.132E-06
 929.150,1.170E-06
 929.500,1.163E-06
 929.850,1.167E-06
 930.200,1.173E-06
 930.550,1.194E-06
 930.900,1.228E-06
 931.250,1.238E-06
 931.600,1.232E-06
 931.950,1.259E-06
 932.300,1.291E-06
 932.650,1.314E-06
 933.000,1.323E-06
 933.350,1.360E-06
 933.700,1.376E-06
 934.050,1.396E-06
 934.400,1.399E-06
 934.750,1.434E-06
 935.100,1.479E-06
 935.450,1.486E-06
 935.800,1.520E-06
 936.150,1.601E-06
 936.500,1.557E-06
 936.850,1.582E-06
 937.200,1.609E-06
 937.550,1.623E-06
 937.900,1.689E-06
 938.250,1.675E-06
 938.600,1.706E-06
 938.950,1.705E-06
 939.300,1.734E-06
 939.650,1.794E-06
 940.000,1.792E-06
 940.350,1.840E-06
 940.700,1.855E-06
 941.050,1.888E-06
 941.400,1.937E-06
 941.750,1.966E-06
 942.100,1.990E-06
 942.450,2.025E-06
 942.800,2.065E-06
 943.150,2.084E-06
 943.500,2.173E-06
 943.850,2.185E-06
 944.200,2.249E-06
 944.550,2.283E-06
 944.900,2.353E-06
 945.250,2.410E-06
 945.600,2.439E-06
 945.950,2.447E-06
 946.300,2.485E-06
 946.650,2.563E-06
 947.000,2.666E-06
 947.350,2.707E-06
 947.700,2.739E-06
 948.050,2.758E-06
 948.400,2.769E-06
 948.750,2.822E-06
 949.100,2.950E-06
 949.450,3.053E-06
 949.800,3.074E-06
 950.150,3.121E-06
 950.500,3.168E-06
 950.850,3.224E-06
 951.200,3.251E-06
 951.550,3.316E-06
 951.900,3.454E-06
 952.250,3.475E-06
 952.600,3.526E-06
 952.950,3.646E-06
 953.300,3.715E-06
 953.650,3.759E-06
 954.000,3.822E-06
 954.350,3.831E-06
 954.700,3.903E-06
 955.050,3.934E-06
 955.400,4.049E-06
 955.750,4.163E-06
 956.100,4.271E-06
 956.450,4.387E-06
 956.800,4.394E-06
 957.150,4.423E-06
 957.500,4.480E-06
 957.850,4.572E-06
 958.200,4.680E-06
 958.550,4.680E-06
 958.900,4.765E-06
 959.250,4.799E-06
 959.600,4.816E-06
 959.950,4.922E-06
 960.300,4.961E-06
 960.650,4.994E-06
 961.000,5.094E-06
 961.350,5.043E-06
 961.700,5.137E-06
 962.050,5.252E-06
 962.400,5.465E-06
 962.750,5.584E-06
 963.100,5.615E-06
 963.450,5.756E-06
 963.800,5.835E-06
 964.150,5.914E-06
 964.500,5.998E-06
 964.850,6.156E-06
 965.200,6.315E-06
 965.550,6.333E-06
 965.900,6.485E-06
 966.250,6.470E-06
 966.600,6.649E-06
 966.950,6.815E-06
 967.300,7.099E-06
 967.650,7.221E-06
 968.000,7.550E-06
 968.350,7.819E-06
 968.700,8.351E-06
 969.050,8.654E-06
 969.400,9.393E-06
 969.750,9.676E-06
 970.100,1.028E-05
 970.450,1.101E-05
 970.800,1.193E-05
 971.150,1.240E-05
 971.500,1.395E-05
 971.850,1.522E-05
 972.200,1.650E-05
 972.550,1.859E-05
 972.900,2.064E-05
 973.250,2.358E-05
 973.600,2.506E-05
 973.950,2.613E-05
 974.300,2.790E-05
 974.650,2.847E-05
 975.000,2.863E-05
 975.350,2.941E-05
 975.700,2.915E-05
 976.050,2.903E-05
 976.400,2.879E-05
 976.750,2.728E-05
 977.100,2.560E-05
 977.450,2.407E-05
 977.800,2.241E-05
 978.150,2.144E-05
 978.500,2.009E-05
 978.850,1.925E-05
 979.200,1.796E-05
 979.550,1.742E-05
 979.900,1.672E-05
 980.250,1.604E-05
 980.600,1.522E-05
 980.950,1.482E-05
 981.300,1.418E-05
 981.650,1.367E-05
 982.000,1.336E-05
 982.350,1.304E-05
 982.700,1.249E-05
 983.050,1.207E-05
 983.400,1.179E-05
 983.750,1.143E-05
 984.100,1.133E-05
 984.450,1.115E-05
 984.800,1.094E-05
 985.150,1.096E-05
 985.500,1.080E-05
 985.850,1.060E-05
 986.200,1.055E-05
 986.550,1.046E-05
 986.900,1.032E-05
 987.250,1.029E-05
 987.600,1.037E-05
 987.950,1.044E-05
 988.300,1.032E-05
 988.650,1.035E-05
 989.000,1.023E-05
 989.350,1.025E-05
 989.700,1.020E-05
 990.050,1.021E-05
 990.400,1.032E-05
 990.750,1.028E-05
 991.100,1.030E-05
 991.450,1.038E-05
 991.800,1.041E-05
 992.150,1.038E-05
 992.500,1.037E-05
 992.850,1.047E-05
 993.200,1.042E-05
 993.550,1.040E-05
 993.900,1.056E-05
 994.250,1.049E-05
 994.600,1.060E-05
 994.950,1.066E-05
 995.300,1.069E-05
 995.650,1.063E-05
 996.000,1.061E-05
 996.350,1.062E-05
 996.700,1.073E-05
 997.050,1.061E-05
 997.400,1.061E-05
 997.750,1.061E-05
 998.100,1.065E-05
 998.450,1.062E-05
 998.800,1.068E-05
 999.150,1.061E-05
 999.500,1.060E-05
 999.850,1.059E-05
1000.200,1.051E-05
1000.550,1.050E-05
1000.900,1.053E-05
1001.250,1.060E-05
1001.600,1.050E-05
1001.950,1.043E-05
1002.300,1.047E-05
1002.650,1.038E-05
1003.000,1.033E-05
1003.350,1.026E-05
1003.700,1.021E-05
1004.050,1.008E-05
1004.400,1.002E-05
1004.750,1.004E-05
1005.100,1.003E-05
1005.450,9.984E-06
1005.800,9.924E-06
1006.150,9.837E-06
1006.500,9.768E-06
1006.850,9.683E-06
1007.200,9.591E-06
1007.550,9.611E-06
1007.900,9.501E-06
1008.250,9.367E-06
1008.600,9.288E-06
1008.950,9.198E-06
1009.300,9.123E-06
1009.650,9.113E-06
1010.000,9.089E-06
1010.350,9.030E-06
1010.700,9.000E-06
1011.050,8.956E-06
1011.400,8.840E-06
1011.750,8.759E-06
1012.100,8.734E-06
1012.450,8.749E-06
1012.800,8.642E-06
1013.150,8.596E-06
1013.500,8.539E-06
1013.850,8.518E-06
1014.200,8.436E-06
1014.550,8.399E-06
1014.900,8.362E-06
1015.250,8.330E-06
1015.600,8.313E-06
1015.950,8.292E-06
1016.300,8.218E-06
1016.650,8.154E-06
1017.000,8.157E-06
1017.350,8.069E-06
1017.700,7.973E-06
1018.050,7.939E-06
1018.400,7.921E-06
1018.750,7.832E-06
1019.100,7.682E-06
1019.450,7.663E-06
1019.800,7.644E-06
1020.150,7.609E-06
1020.500,7.552E-06
1020.850,7.554E-06
1021.200,7.502E-06
1021.550,7.397E-06
1021.900,7.356E-06
1022.250,7.362E-06
1022.600,7.320E-06
1022.950,7.202E-06
1023.300,7.138E-06
1023.650,7.040E-06
1024.000,7.013E-06
1024.350,6.926E-06
1024.700,6.865E-06
1025.050,6.793E-06
1025.400,6.792E-06
1025.750,6.748E-06
1026.100,6.719E-06
1026.450,6.618E-06
1026.800,6.512E-06
1027.150,6.416E-06
1027.500,6.384E-06
1027.850,6.343E-06
1028.200,6.256E-06
1028.550,6.181E-06
1028.900,6.088E-06
1029.250,6.068E-06
1029.600,5.986E-06
1029.950,5.894E-06
1030.300,5.882E-06
1030.650,5.815E-06
1031.000,5.738E-06
1031.350,5.707E-06
1031.700,5.606E-06
1032.050,5.567E-06
1032.400,5.510E-06
1032.750,5.448E-06
1033.100,5.414E-06
1033.450,5.362E-06
1033.800,5.338E-06
1034.150,5.280E-06
1034.500,5.220E-06
1034.850,5.172E-06
1035.200,5.123E-06
1035.550,5.088E-06
1035.900,5.068E-06
1036.250,5.030E-06
1036.600,4.945E-06
1036.950,4.877E-06
1037.300,4.868E-06
1037.650,4.840E-06
1038.000,4.796E-06
1038.350,4.748E-06
1038.700,4.684E-06
1039.050,4.628E-06
1039.400,4.589E-06
1039.750,4.552E-06
1040.100,4.503E-06
1040.450,4.488E-06
1040.800,4.438E-06
1041.150,4.401E-06
1041.500,4.356E-06
1041.850,4.309E-06
1042.200,4.274E-06
1042.550,4.241E-06
1042.900,4.204E-06
1043.250,4.172E-06
1043.600,4.138E-06
1043.950,4.092E-06
1044.300,4.044E-06
1044.650,4.028E-06
1045.000,4.004E-06
1045.350,3.963E-06
1045.700,3.921E-06
1046.050,3.884E-06
1046.400,3.851E-06
1046.750,3.817E-06
1047.100,3.777E-06
1047.450,3.733E-06
1047.800,3.710E-06
1048.150,3.684E-06
1048.500,3.643E-06
1048.850,3.595E-06
1049.200,3.561E-06
1049.550,3.509E-06
1049.900,3.446E-06
1050.250,3.268E-06
1050.600,3.241E-06
1050.950,3.205E-06
1051.300,3.172E-06
1051.650,3.154E-06
1052.000,3.113E-06
1052.350,3.082E-06
1052.700,3.043E-06
1053.050,2.998E-06
1053.400,2.950E-06
1053.750,2.923E-06
1054.100,2.892E-06
1054.450,2.858E-06
1054.800,2.819E-06
1055.150,2.785E-06
1055.500,2.722E-06
1055.850,2.701E-06
1056.200,2.658E-06
1056.550,2.627E-06
1056.900,2.578E-06
1057.250,2.555E-06
1057.600,2.510E-06
1057.950,2.481E-06
1058.300,2.436E-06
1058.650,2.409E-06
1059.000,2.390E-06
1059.350,2.360E-06
1059.700,2.309E-06
1060.050,2.277E-06
1060.400,2.255E-06
1060.750,2.207E-06
1061.100,2.176E-06
1061.450,2.128E-06
1061.800,2.087E-06
1062.150,2.059E-06
1062.500,2.031E-06
1062.850,2.012E-06
1063.200,1.969E-06
1063.550,1.945E-06
1063.900,1.916E-06
1064.250,1.881E-06
1064.600,1.845E-06
1064.950,1.803E-06
1065.300,1.782E-06
1065.650,1.759E-06
1066.000,1.718E-06
1066.350,1.693E-06
1066.700,1.656E-06
1067.050,1.632E-06
1067.400,1.606E-06
1067.750,1.573E-06
1068.100,1.549E-06
1068.450,1.520E-06
1068.800,1.491E-06
1069.150,1.467E-06
1069.500,1.442E-06
1069.850,1.415E-06
1070.200,1.380E-06
1070.550,1.371E-06
1070.900,1.348E-06
1071.250,1.321E-06
1071.600,1.299E-06
1071.950,1.276E-06
1072.300,1.251E-06
1072.650,1.229E-06
1073.000,1.213E-06
1073.350,1.183E-06
1073.700,1.157E-06
1074.050,1.137E-06
1074.400,1.117E-06
1074.750,1.096E-06
1075.100,1.072E-06
1075.450,1.050E-06
1075.800,1.032E-06
1076.150,1.008E-06
1076.500,9.986E-07
1076.850,9.852E-07
1077.200,9.625E-07
1077.550,9.432E-07
1077.900,9.241E-07
1078.250,9.161E-07
1078.600,9.015E-07
1078.950,8.844E-07
1079.300,8.601E-07
1079.650,8.528E-07
1080.000,8.268E-07
1080.350,8.201E-07
1080.700,8.020E-07
1081.050,7.825E-07
1081.400,7.763E-07
1081.750,7.602E-07
1082.100,7.437E-07
1082.450,7.294E-07
1082.800,7.181E-07
1083.150,7.055E-07
1083.500,6.876E-07
1083.850,6.799E-07
1084.200,6.681E-07
1084.550,6.601E-07
1084.900,6.346E-07
1085.250,6.269E-07
1085.600,6.140E-07
1085.950,6.113E-07
1086.300,6.045E-07
1086.650,5.901E-07
1087.000,5.791E-07
1087.350,5.735E-07
1087.700,5.604E-07
1088.050,5.465E-07
1088.400,5.402E-07
1088.750,5.230E-07
1089.100,5.178E-07
1089.450,5.042E-07
1089.800,5.047E-07
1090.150,4.945E-07
1090.500,4.864E-07
1090.850,4.781E-07
1091.200,4.707E-07
1091.550,4.679E-07
1091.900,4.550E-07
1092.250,4.455E-07
1092.600,4.391E-07
1092.950,4.314E-07
1093.300,4.270E-07
1093.650,4.131E-07
1094.000,4.129E-07
1094.350,4.021E-07
1094.700,3.986E-07
1095.050,3.951E-07
1095.400,3.864E-07
1095.750,3.783E-07
1096.100,3.707E-07
1096.450,3.629E-07
1096.800,3.591E-07
1097.150,3.488E-07
1097.500,3.464E-07
1097.850,3.370E-07
1098.200,3.333E-07
1098.550,3.224E-07
1098.900,3.236E-07
1099.250,3.167E-07
1099.600,3.134E-07
1099.950,3.046E-07
1100.300,3.037E-07
1100.650,2.976E-07
1101.000,2.925E-07
1101.350,2.829E-07
1101.700,2.858E-07
1102.050,2.830E-07
1102.400,2.726E-07
1102.750,2.652E-07
1103.100,2.647E-07
1103.450,2.619E-07
1103.800,2.574E-07
1104.150,2.541E-07
1104.500,2.480E-07
1104.850,2.437E-07
1105.200,2.396E-07
1105.550,2.360E-07
1105.900,2.320E-07
1106.250,2.303E-07
1106.600,2.253E-07
1106.950,2.245E-07
1107.300,2.196E-07
1107.650,2.186E-07
1108.000,2.156E-07
1108.350,2.103E-07
1108.700,2.061E-07
1109.050,2.062E-07
1109.400,1.992E-07
1109.750,1.981E-07
1110.100,1.996E-07
1110.450,1.906E-07
1110.800,1.877E-07
1111.150,1.844E-07
1111.500,1.813E-07
1111.850,1.805E-07
1112.200,1.760E-07
1112.550,1.779E-07
1112.900,1.723E-07
1113.250,1.704E-07
1113.600,1.713E-07
1113.950,1.700E-07
1114.300,1.633E-07
1114.650,1.614E-07
1115.000,1.603E-07
1115.350,1.545E-07
1115.700,1.536E-07
1116.050,1.547E-07
1116.400,1.519E-07
1116.750,1.487E-07
1117.100,1.488E-07
1117.450,1.482E-07
1117.800,1.453E-07
1118.150,1.394E-07
1118.500,1.397E-07
1118.850,1.377E-07
1119.200,1.422E-07
1119.550,1.348E-07
1119.900,1.366E-07
1120.250,1.362E-07
1120.600,1.350E-07
1120.950,1.339E-07
1121.300,1.288E-07
1121.650,1.246E-07
1122.000,1.283E-07
1122.350,1.257E-07
1122.700,1.260E-07
1123.050,1.249E-07
1123.400,1.245E-07
1123.750,1.191E-07
1124.100,1.181E-07
1124.450,1.198E-07
1124.800,1.185E-07
1125.150,1.131E-07
1125.500,1.155E-07
1125.850,1.121E-07
1126.200,1.123E-07
1126.550,1.140E-07
1126.900,1.125E-07
1127.250,1.121E-07
1127.600,1.103E-07
1127.950,1.054E-07
1128.300,1.078E-07
1128.650,1.060E-07
1129.000,1.036E-07
1129.350,1.016E-07
1129.700,9.912E-08
1130.050,1.047E-07
1130.400,1.032E-07
1130.750,1.017E-07
1131.100,1.034E-07
1131.450,1.018E-07
1131.800,1.007E-07
1132.150,9.855E-08
1132.500,1.001E-07
1132.850,9.878E-08
1133.200,9.889E-08
1133.550,9.967E-08
1133.900,9.855E-08
1134.250,9.113E-08
1134.600,9.305E-08
1134.950,9.328E-08
1135.300,9.016E-08
1135.650,9.262E-08
1136.000,8.961E-08
1136.350,8.816E-08
1136.700,9.130E-08
1137.050,8.863E-08
1137.400,8.820E-08
1137.750,8.598E-08
1138.100,8.609E-08
1138.450,8.168E-08
1138.800,8.478E-08
1139.150,8.094E-08
1139.500,8.581E-08
1139.850,8.031E-08
1140.200,8.517E-08
1140.550,8.296E-08
1140.900,8.539E-08
1141.250,7.866E-08
1141.600,8.649E-08
1141.950,8.186E-08
1142.300,7.612E-08
1142.650,8.064E-08
1143.000,7.866E-08
1143.350,7.778E-08
1143.700,8.064E-08
1144.050,7.634E-08
1144.400,8.075E-08
1144.750,7.619E-08
1145.100,7.917E-08
1145.450,7.784E-08
1145.800,7.641E-08
1146.150,7.762E-08
1146.500,7.010E-08
1146.850,6.933E-08
1147.200,7.132E-08
1147.550,6.789E-08
1147.900,6.922E-08
1148.250,7.077E-08
1148.600,7.088E-08
1148.950,6.800E-08
1149.300,6.623E-08
1149.650,6.756E-08
1150.000,6.484E-08
