IstTemp[K]=293.00

 800.000,3.542E-08
 800.350,3.750E-08
 800.700,3.125E-08
 801.050,3.385E-08
 801.400,3.147E-08
 801.750,3.979E-08
 802.100,2.999E-08
 802.450,4.296E-08
 802.800,3.673E-08
 803.150,3.762E-08
 803.500,3.872E-08
 803.850,3.192E-08
 804.200,4.581E-08
 804.550,3.133E-08
 804.900,4.069E-08
 805.250,3.627E-08
 805.600,4.512E-08
 805.950,3.736E-08
 806.300,3.354E-08
 806.650,3.354E-08
 807.000,4.295E-08
 807.350,3.757E-08
 807.700,2.935E-08
 808.050,3.728E-08
 808.400,3.904E-08
 808.750,4.569E-08
 809.100,3.719E-08
 809.450,3.104E-08
 809.800,3.828E-08
 810.150,4.587E-08
 810.500,4.091E-08
 810.850,3.798E-08
 811.200,4.227E-08
 811.550,4.023E-08
 811.900,3.382E-08
 812.250,3.644E-08
 812.600,3.694E-08
 812.950,3.781E-08
 813.300,4.450E-08
 813.650,3.490E-08
 814.000,2.699E-08
 814.350,3.279E-08
 814.700,4.237E-08
 815.050,4.266E-08
 815.400,3.619E-08
 815.750,4.285E-08
 816.100,3.156E-08
 816.450,3.214E-08
 816.800,3.937E-08
 817.150,4.188E-08
 817.500,3.437E-08
 817.850,3.639E-08
 818.200,3.379E-08
 818.550,3.026E-08
 818.900,4.496E-08
 819.250,4.092E-08
 819.600,3.890E-08
 819.950,3.766E-08
 820.300,4.446E-08
 820.650,4.274E-08
 821.000,3.606E-08
 821.350,3.406E-08
 821.700,3.598E-08
 822.050,4.188E-08
 822.400,4.131E-08
 822.750,3.467E-08
 823.100,3.318E-08
 823.450,3.318E-08
 823.800,3.989E-08
 824.150,3.754E-08
 824.500,3.585E-08
 824.850,3.295E-08
 825.200,3.971E-08
 825.550,2.613E-08
 825.900,3.224E-08
 826.250,3.420E-08
 826.600,2.181E-08
 826.950,3.655E-08
 827.300,3.795E-08
 827.650,3.730E-08
 828.000,2.700E-08
 828.350,2.833E-08
 828.700,3.464E-08
 829.050,3.713E-08
 829.400,3.124E-08
 829.750,2.648E-08
 830.100,3.165E-08
 830.450,3.158E-08
 830.800,2.651E-08
 831.150,3.627E-08
 831.500,3.237E-08
 831.850,2.952E-08
 832.200,3.377E-08
 832.550,3.774E-08
 832.900,3.139E-08
 833.250,3.801E-08
 833.600,3.152E-08
 833.950,3.855E-08
 834.300,3.714E-08
 834.650,3.017E-08
 835.000,3.556E-08
 835.350,3.180E-08
 835.700,3.147E-08
 836.050,3.263E-08
 836.400,3.203E-08
 836.750,3.715E-08
 837.100,3.155E-08
 837.450,3.457E-08
 837.800,3.810E-08
 838.150,3.716E-08
 838.500,3.119E-08
 838.850,2.857E-08
 839.200,2.996E-08
 839.550,2.812E-08
 839.900,3.134E-08
 840.250,3.311E-08
 840.600,3.917E-08
 840.950,2.957E-08
 841.300,3.058E-08
 841.650,3.850E-08
 842.000,4.078E-08
 842.350,3.014E-08
 842.700,3.040E-08
 843.050,3.402E-08
 843.400,3.580E-08
 843.750,3.072E-08
 844.100,3.656E-08
 844.450,2.818E-08
 844.800,2.977E-08
 845.150,2.901E-08
 845.500,3.639E-08
 845.850,4.199E-08
 846.200,2.723E-08
 846.550,3.341E-08
 846.900,3.367E-08
 847.250,2.551E-08
 847.600,3.367E-08
 847.950,2.653E-08
 848.300,3.247E-08
 848.650,3.912E-08
 849.000,3.554E-08
 849.350,3.042E-08
 849.700,3.177E-08
 850.050,2.511E-08
 850.400,2.748E-08
 850.750,3.621E-08
 851.100,3.321E-08
 851.450,3.225E-08
 851.800,3.509E-08
 852.150,3.233E-08
 852.500,3.336E-08
 852.850,2.799E-08
 853.200,3.188E-08
 853.550,2.884E-08
 853.900,3.698E-08
 854.250,3.385E-08
 854.600,3.889E-08
 854.950,2.662E-08
 855.300,3.139E-08
 855.650,3.435E-08
 856.000,3.592E-08
 856.350,3.548E-08
 856.700,3.312E-08
 857.050,3.214E-08
 857.400,3.195E-08
 857.750,2.957E-08
 858.100,3.467E-08
 858.450,2.620E-08
 858.800,3.528E-08
 859.150,2.473E-08
 859.500,3.669E-08
 859.850,2.985E-08
 860.200,3.118E-08
 860.550,2.244E-08
 860.900,3.882E-08
 861.250,3.427E-08
 861.600,2.415E-08
 861.950,3.550E-08
 862.300,3.658E-08
 862.650,2.992E-08
 863.000,3.918E-08
 863.350,3.485E-08
 863.700,3.168E-08
 864.050,4.126E-08
 864.400,4.533E-08
 864.750,3.101E-08
 865.100,3.572E-08
 865.450,3.763E-08
 865.800,3.744E-08
 866.150,2.959E-08
 866.500,3.205E-08
 866.850,3.212E-08
 867.200,2.312E-08
 867.550,3.027E-08
 867.900,3.696E-08
 868.250,2.958E-08
 868.600,3.981E-08
 868.950,3.630E-08
 869.300,4.333E-08
 869.650,3.555E-08
 870.000,3.034E-08
 870.350,3.488E-08
 870.700,3.560E-08
 871.050,2.725E-08
 871.400,4.055E-08
 871.750,3.528E-08
 872.100,3.678E-08
 872.450,3.516E-08
 872.800,4.206E-08
 873.150,4.558E-08
 873.500,3.484E-08
 873.850,2.976E-08
 874.200,3.844E-08
 874.550,3.364E-08
 874.900,3.919E-08
 875.250,4.361E-08
 875.600,4.487E-08
 875.950,3.714E-08
 876.300,4.799E-08
 876.650,3.382E-08
 877.000,4.879E-08
 877.350,4.539E-08
 877.700,2.942E-08
 878.050,4.748E-08
 878.400,4.463E-08
 878.750,3.259E-08
 879.100,3.890E-08
 879.450,3.720E-08
 879.800,3.639E-08
 880.150,4.057E-08
 880.500,3.857E-08
 880.850,3.536E-08
 881.200,3.184E-08
 881.550,4.836E-08
 881.900,4.064E-08
 882.250,4.164E-08
 882.600,3.811E-08
 882.950,3.811E-08
 883.300,4.093E-08
 883.650,4.375E-08
 884.000,5.391E-08
 884.350,4.629E-08
 884.700,4.060E-08
 885.050,4.712E-08
 885.400,4.201E-08
 885.750,5.397E-08
 886.100,4.580E-08
 886.450,4.991E-08
 886.800,5.052E-08
 887.150,4.107E-08
 887.500,3.528E-08
 887.850,4.684E-08
 888.200,4.529E-08
 888.550,3.793E-08
 888.900,3.896E-08
 889.250,4.436E-08
 889.600,4.404E-08
 889.950,4.070E-08
 890.300,5.041E-08
 890.650,4.759E-08
 891.000,4.978E-08
 891.350,3.600E-08
 891.700,2.849E-08
 892.050,3.851E-08
 892.400,3.507E-08
 892.750,4.728E-08
 893.100,3.757E-08
 893.450,3.726E-08
 893.800,4.571E-08
 894.150,6.011E-08
 894.500,5.009E-08
 894.850,5.654E-08
 895.200,5.216E-08
 895.550,4.279E-08
 895.900,5.091E-08
 896.250,5.466E-08
 896.600,5.154E-08
 896.950,6.247E-08
 897.300,4.998E-08
 897.650,5.373E-08
 898.000,4.623E-08
 898.350,6.154E-08
 898.700,5.216E-08
 899.050,5.435E-08
 899.400,5.466E-08
 899.750,5.173E-08
 900.100,5.472E-08
 900.450,5.739E-08
 900.800,5.540E-08
 901.150,5.620E-08
 901.500,6.100E-08
 901.850,6.195E-08
 902.200,5.752E-08
 902.550,5.922E-08
 902.900,5.908E-08
 903.250,5.743E-08
 903.600,6.154E-08
 903.950,5.311E-08
 904.300,6.051E-08
 904.650,5.827E-08
 905.000,6.054E-08
 905.350,5.501E-08
 905.700,5.698E-08
 906.050,6.562E-08
 906.400,6.162E-08
 906.750,6.473E-08
 907.100,6.429E-08
 907.450,6.649E-08
 907.800,6.311E-08
 908.150,6.209E-08
 908.500,7.317E-08
 908.850,5.817E-08
 909.200,6.529E-08
 909.550,6.369E-08
 909.900,7.204E-08
 910.250,6.942E-08
 910.600,9.044E-08
 910.950,8.860E-08
 911.300,8.479E-08
 911.650,7.113E-08
 912.000,8.232E-08
 912.350,9.313E-08
 912.700,8.741E-08
 913.050,9.089E-08
 913.400,8.799E-08
 913.750,9.247E-08
 914.100,1.030E-07
 914.450,1.039E-07
 914.800,1.118E-07
 915.150,1.102E-07
 915.500,1.130E-07
 915.850,1.261E-07
 916.200,1.167E-07
 916.550,1.342E-07
 916.900,1.397E-07
 917.250,1.412E-07
 917.600,1.555E-07
 917.950,1.524E-07
 918.300,1.509E-07
 918.650,1.606E-07
 919.000,1.797E-07
 919.350,1.830E-07
 919.700,1.780E-07
 920.050,1.909E-07
 920.400,1.829E-07
 920.750,2.012E-07
 921.100,2.065E-07
 921.450,2.108E-07
 921.800,2.151E-07
 922.150,2.129E-07
 922.500,2.134E-07
 922.850,2.149E-07
 923.200,2.235E-07
 923.550,2.325E-07
 923.900,2.261E-07
 924.250,2.314E-07
 924.600,2.414E-07
 924.950,2.363E-07
 925.300,2.369E-07
 925.650,2.427E-07
 926.000,2.477E-07
 926.350,2.491E-07
 926.700,2.505E-07
 927.050,2.552E-07
 927.400,2.552E-07
 927.750,2.452E-07
 928.100,2.520E-07
 928.450,2.449E-07
 928.800,2.580E-07
 929.150,2.588E-07
 929.500,2.609E-07
 929.850,2.529E-07
 930.200,2.652E-07
 930.550,2.590E-07
 930.900,2.623E-07
 931.250,2.613E-07
 931.600,2.659E-07
 931.950,2.682E-07
 932.300,2.719E-07
 932.650,2.710E-07
 933.000,2.685E-07
 933.350,2.771E-07
 933.700,2.719E-07
 934.050,2.818E-07
 934.400,2.753E-07
 934.750,2.864E-07
 935.100,2.855E-07
 935.450,2.865E-07
 935.800,2.949E-07
 936.150,2.918E-07
 936.500,2.973E-07
 936.850,3.013E-07
 937.200,3.056E-07
 937.550,3.076E-07
 937.900,3.098E-07
 938.250,3.190E-07
 938.600,3.218E-07
 938.950,3.199E-07
 939.300,3.325E-07
 939.650,3.434E-07
 940.000,3.417E-07
 940.350,3.580E-07
 940.700,3.615E-07
 941.050,3.653E-07
 941.400,3.764E-07
 941.750,3.785E-07
 942.100,3.810E-07
 942.450,3.948E-07
 942.800,4.003E-07
 943.150,4.020E-07
 943.500,4.166E-07
 943.850,4.216E-07
 944.200,4.310E-07
 944.550,4.330E-07
 944.900,4.525E-07
 945.250,4.559E-07
 945.600,4.547E-07
 945.950,4.611E-07
 946.300,4.643E-07
 946.650,4.698E-07
 947.000,4.766E-07
 947.350,4.862E-07
 947.700,4.931E-07
 948.050,4.982E-07
 948.400,5.115E-07
 948.750,5.131E-07
 949.100,5.271E-07
 949.450,5.337E-07
 949.800,5.345E-07
 950.150,5.420E-07
 950.500,5.619E-07
 950.850,5.692E-07
 951.200,5.858E-07
 951.550,6.057E-07
 951.900,6.115E-07
 952.250,6.181E-07
 952.600,6.390E-07
 952.950,6.478E-07
 953.300,6.613E-07
 953.650,6.726E-07
 954.000,6.826E-07
 954.350,7.047E-07
 954.700,7.109E-07
 955.050,7.352E-07
 955.400,7.535E-07
 955.750,7.688E-07
 956.100,7.853E-07
 956.450,7.950E-07
 956.800,8.103E-07
 957.150,8.299E-07
 957.500,8.556E-07
 957.850,8.685E-07
 958.200,8.838E-07
 958.550,9.035E-07
 958.900,9.240E-07
 959.250,9.500E-07
 959.600,9.823E-07
 959.950,1.005E-06
 960.300,1.034E-06
 960.650,1.062E-06
 961.000,1.089E-06
 961.350,1.115E-06
 961.700,1.145E-06
 962.050,1.180E-06
 962.400,1.220E-06
 962.750,1.248E-06
 963.100,1.288E-06
 963.450,1.348E-06
 963.800,1.394E-06
 964.150,1.469E-06
 964.500,1.553E-06
 964.850,1.638E-06
 965.200,1.671E-06
 965.550,1.664E-06
 965.900,1.657E-06
 966.250,1.668E-06
 966.600,1.699E-06
 966.950,1.720E-06
 967.300,1.757E-06
 967.650,1.796E-06
 968.000,1.837E-06
 968.350,1.877E-06
 968.700,1.924E-06
 969.050,1.967E-06
 969.400,1.989E-06
 969.750,2.037E-06
 970.100,2.092E-06
 970.450,2.123E-06
 970.800,2.170E-06
 971.150,2.217E-06
 971.500,2.258E-06
 971.850,2.315E-06
 972.200,2.374E-06
 972.550,2.435E-06
 972.900,2.508E-06
 973.250,2.571E-06
 973.600,2.653E-06
 973.950,2.740E-06
 974.300,2.839E-06
 974.650,2.944E-06
 975.000,3.064E-06
 975.350,3.200E-06
 975.700,3.326E-06
 976.050,3.477E-06
 976.400,3.627E-06
 976.750,3.818E-06
 977.100,4.010E-06
 977.450,4.186E-06
 977.800,4.383E-06
 978.150,4.519E-06
 978.500,4.692E-06
 978.850,4.844E-06
 979.200,4.965E-06
 979.550,5.091E-06
 979.900,5.105E-06
 980.250,5.130E-06
 980.600,5.105E-06
 980.950,5.033E-06
 981.300,4.942E-06
 981.650,4.866E-06
 982.000,4.754E-06
 982.350,4.634E-06
 982.700,4.543E-06
 983.050,4.417E-06
 983.400,4.321E-06
 983.750,4.272E-06
 984.100,4.215E-06
 984.450,4.137E-06
 984.800,4.087E-06
 985.150,4.034E-06
 985.500,4.006E-06
 985.850,3.950E-06
 986.200,3.912E-06
 986.550,3.833E-06
 986.900,3.798E-06
 987.250,3.784E-06
 987.600,3.747E-06
 987.950,3.715E-06
 988.300,3.678E-06
 988.650,3.647E-06
 989.000,3.603E-06
 989.350,3.570E-06
 989.700,3.509E-06
 990.050,3.447E-06
 990.400,3.411E-06
 990.750,3.353E-06
 991.100,3.286E-06
 991.450,3.241E-06
 991.800,3.193E-06
 992.150,3.118E-06
 992.500,3.061E-06
 992.850,3.003E-06
 993.200,2.969E-06
 993.550,2.901E-06
 993.900,2.825E-06
 994.250,2.786E-06
 994.600,2.757E-06
 994.950,2.699E-06
 995.300,2.658E-06
 995.650,2.618E-06
 996.000,2.570E-06
 996.350,2.525E-06
 996.700,2.482E-06
 997.050,2.451E-06
 997.400,2.428E-06
 997.750,2.401E-06
 998.100,2.382E-06
 998.450,2.341E-06
 998.800,2.307E-06
 999.150,2.288E-06
 999.500,2.270E-06
 999.850,2.255E-06
1000.200,2.243E-06
1000.550,2.211E-06
1000.900,2.194E-06
1001.250,2.190E-06
1001.600,2.191E-06
1001.950,2.159E-06
1002.300,2.151E-06
1002.650,2.141E-06
1003.000,2.153E-06
1003.350,2.153E-06
1003.700,2.155E-06
1004.050,2.133E-06
1004.400,2.126E-06
1004.750,2.137E-06
1005.100,2.140E-06
1005.450,2.143E-06
1005.800,2.131E-06
1006.150,2.142E-06
1006.500,2.137E-06
1006.850,2.142E-06
1007.200,2.149E-06
1007.550,2.163E-06
1007.900,2.155E-06
1008.250,2.152E-06
1008.600,2.174E-06
1008.950,2.174E-06
1009.300,2.183E-06
1009.650,2.193E-06
1010.000,2.206E-06
1010.350,2.219E-06
1010.700,2.229E-06
1011.050,2.235E-06
1011.400,2.233E-06
1011.750,2.250E-06
1012.100,2.259E-06
1012.450,2.261E-06
1012.800,2.240E-06
1013.150,2.235E-06
1013.500,2.253E-06
1013.850,2.250E-06
1014.200,2.243E-06
1014.550,2.239E-06
1014.900,2.233E-06
1015.250,2.235E-06
1015.600,2.239E-06
1015.950,2.224E-06
1016.300,2.207E-06
1016.650,2.201E-06
1017.000,2.175E-06
1017.350,2.151E-06
1017.700,2.144E-06
1018.050,2.128E-06
1018.400,2.115E-06
1018.750,2.093E-06
1019.100,2.081E-06
1019.450,2.084E-06
1019.800,2.075E-06
1020.150,2.064E-06
1020.500,2.044E-06
1020.850,2.036E-06
1021.200,2.029E-06
1021.550,2.013E-06
1021.900,2.012E-06
1022.250,2.001E-06
1022.600,1.989E-06
1022.950,1.973E-06
1023.300,1.981E-06
1023.650,1.975E-06
1024.000,1.971E-06
1024.350,1.970E-06
1024.700,1.971E-06
1025.050,1.973E-06
1025.400,1.972E-06
1025.750,1.972E-06
1026.100,1.964E-06
1026.450,1.963E-06
1026.800,1.961E-06
1027.150,1.976E-06
1027.500,1.985E-06
1027.850,1.993E-06
1028.200,1.984E-06
1028.550,1.988E-06
1028.900,2.004E-06
1029.250,1.984E-06
1029.600,2.003E-06
1029.950,1.990E-06
1030.300,1.982E-06
1030.650,1.980E-06
1031.000,1.995E-06
1031.350,1.975E-06
1031.700,1.965E-06
1032.050,1.959E-06
1032.400,1.942E-06
1032.750,1.937E-06
1033.100,1.915E-06
1033.450,1.904E-06
1033.800,1.903E-06
1034.150,1.893E-06
1034.500,1.877E-06
1034.850,1.860E-06
1035.200,1.833E-06
1035.550,1.810E-06
1035.900,1.798E-06
1036.250,1.778E-06
1036.600,1.754E-06
1036.950,1.730E-06
1037.300,1.702E-06
1037.650,1.692E-06
1038.000,1.667E-06
1038.350,1.647E-06
1038.700,1.629E-06
1039.050,1.613E-06
1039.400,1.587E-06
1039.750,1.559E-06
1040.100,1.558E-06
1040.450,1.545E-06
1040.800,1.536E-06
1041.150,1.519E-06
1041.500,1.531E-06
1041.850,1.518E-06
1042.200,1.497E-06
1042.550,1.492E-06
1042.900,1.493E-06
1043.250,1.493E-06
1043.600,1.499E-06
1043.950,1.495E-06
1044.300,1.477E-06
1044.650,1.465E-06
1045.000,1.466E-06
1045.350,1.472E-06
1045.700,1.461E-06
1046.050,1.469E-06
1046.400,1.461E-06
1046.750,1.439E-06
1047.100,1.442E-06
1047.450,1.435E-06
1047.800,1.423E-06
1048.150,1.430E-06
1048.500,1.428E-06
1048.850,1.416E-06
1049.200,1.393E-06
1049.550,1.389E-06
1049.900,1.375E-06
1050.250,1.278E-06
1050.600,1.261E-06
1050.950,1.245E-06
1051.300,1.237E-06
1051.650,1.214E-06
1052.000,1.197E-06
1052.350,1.162E-06
1052.700,1.156E-06
1053.050,1.142E-06
1053.400,1.129E-06
1053.750,1.105E-06
1054.100,1.089E-06
1054.450,1.061E-06
1054.800,1.039E-06
1055.150,1.025E-06
1055.500,1.011E-06
1055.850,9.870E-07
1056.200,9.706E-07
1056.550,9.436E-07
1056.900,9.306E-07
1057.250,9.105E-07
1057.600,8.849E-07
1057.950,8.750E-07
1058.300,8.528E-07
1058.650,8.216E-07
1059.000,8.126E-07
1059.350,8.006E-07
1059.700,7.845E-07
1060.050,7.673E-07
1060.400,7.500E-07
1060.750,7.312E-07
1061.100,7.208E-07
1061.450,7.095E-07
1061.800,6.948E-07
1062.150,6.648E-07
1062.500,6.633E-07
1062.850,6.433E-07
1063.200,6.297E-07
1063.550,6.257E-07
1063.900,6.078E-07
1064.250,5.965E-07
1064.600,5.864E-07
1064.950,5.721E-07
1065.300,5.670E-07
1065.650,5.520E-07
1066.000,5.413E-07
1066.350,5.336E-07
1066.700,5.276E-07
1067.050,5.211E-07
1067.400,5.070E-07
1067.750,4.978E-07
1068.100,4.857E-07
1068.450,4.813E-07
1068.800,4.740E-07
1069.150,4.561E-07
1069.500,4.477E-07
1069.850,4.457E-07
1070.200,4.346E-07
1070.550,4.300E-07
1070.900,4.220E-07
1071.250,4.081E-07
1071.600,4.002E-07
1071.950,3.929E-07
1072.300,3.872E-07
1072.650,3.779E-07
1073.000,3.724E-07
1073.350,3.640E-07
1073.700,3.482E-07
1074.050,3.550E-07
1074.400,3.421E-07
1074.750,3.405E-07
1075.100,3.328E-07
1075.450,3.265E-07
1075.800,3.214E-07
1076.150,3.103E-07
1076.500,3.077E-07
1076.850,3.031E-07
1077.200,3.025E-07
1077.550,2.869E-07
1077.900,2.807E-07
1078.250,2.767E-07
1078.600,2.643E-07
1078.950,2.659E-07
1079.300,2.590E-07
1079.650,2.546E-07
1080.000,2.451E-07
1080.350,2.422E-07
1080.700,2.371E-07
1081.050,2.321E-07
1081.400,2.222E-07
1081.750,2.216E-07
1082.100,2.227E-07
1082.450,2.125E-07
1082.800,2.174E-07
1083.150,2.039E-07
1083.500,1.975E-07
1083.850,1.966E-07
1084.200,1.930E-07
1084.550,1.916E-07
1084.900,1.851E-07
1085.250,1.789E-07
1085.600,1.740E-07
1085.950,1.697E-07
1086.300,1.764E-07
1086.650,1.670E-07
1087.000,1.587E-07
1087.350,1.641E-07
1087.700,1.533E-07
1088.050,1.523E-07
1088.400,1.483E-07
1088.750,1.428E-07
1089.100,1.352E-07
1089.450,1.388E-07
1089.800,1.358E-07
1090.150,1.322E-07
1090.500,1.284E-07
1090.850,1.290E-07
1091.200,1.225E-07
1091.550,1.224E-07
1091.900,1.228E-07
1092.250,1.187E-07
1092.600,1.120E-07
1092.950,1.153E-07
1093.300,1.058E-07
1093.650,1.075E-07
1094.000,1.138E-07
1094.350,1.066E-07
1094.700,1.125E-07
1095.050,1.061E-07
1095.400,1.015E-07
1095.750,9.341E-08
1096.100,9.280E-08
1096.450,9.592E-08
1096.800,9.479E-08
1097.150,8.988E-08
1097.500,8.489E-08
1097.850,8.586E-08
1098.200,8.251E-08
1098.550,8.014E-08
1098.900,8.091E-08
1099.250,8.367E-08
1099.600,8.124E-08
1099.950,7.568E-08
1100.300,7.589E-08
1100.650,7.851E-08
1101.000,6.995E-08
1101.350,7.275E-08
1101.700,7.233E-08
1102.050,7.140E-08
1102.400,6.947E-08
1102.750,6.566E-08
1103.100,6.566E-08
1103.450,6.915E-08
1103.800,6.398E-08
1104.150,5.996E-08
1104.500,6.033E-08
1104.850,5.846E-08
1105.200,6.218E-08
1105.550,5.682E-08
1105.900,5.979E-08
1106.250,5.928E-08
1106.600,5.508E-08
1106.950,5.335E-08
1107.300,6.097E-08
1107.650,5.531E-08
1108.000,5.409E-08
1108.350,5.604E-08
1108.700,5.189E-08
1109.050,5.420E-08
1109.400,4.897E-08
1109.750,4.922E-08
1110.100,4.983E-08
1110.450,4.911E-08
1110.800,5.093E-08
1111.150,4.803E-08
1111.500,5.371E-08
1111.850,4.636E-08
1112.200,4.744E-08
1112.550,4.541E-08
1112.900,4.145E-08
1113.250,4.087E-08
1113.600,4.363E-08
1113.950,5.010E-08
1114.300,4.245E-08
1114.650,4.939E-08
1115.000,4.164E-08
1115.350,4.297E-08
1115.700,4.465E-08
1116.050,4.038E-08
1116.400,4.135E-08
1116.750,4.277E-08
1117.100,3.534E-08
1117.450,3.842E-08
1117.800,3.691E-08
1118.150,3.868E-08
1118.500,3.424E-08
1118.850,3.754E-08
1119.200,4.085E-08
1119.550,3.369E-08
1119.900,3.479E-08
1120.250,3.572E-08
1120.600,3.225E-08
1120.950,3.576E-08
1121.300,3.661E-08
1121.650,3.439E-08
1122.000,3.269E-08
1122.350,3.699E-08
1122.700,3.699E-08
1123.050,3.690E-08
1123.400,3.957E-08
1123.750,3.404E-08
1124.100,3.300E-08
1124.450,3.754E-08
1124.800,3.119E-08
1125.150,3.642E-08
1125.500,3.100E-08
1125.850,3.001E-08
1126.200,3.438E-08
1126.550,3.231E-08
1126.900,3.304E-08
1127.250,3.419E-08
1127.600,3.434E-08
1127.950,2.942E-08
1128.300,3.266E-08
1128.650,3.255E-08
1129.000,3.224E-08
1129.350,3.099E-08
1129.700,2.569E-08
1130.050,2.592E-08
1130.400,2.762E-08
1130.750,2.983E-08
1131.100,2.677E-08
1131.450,2.523E-08
1131.800,2.750E-08
1132.150,2.551E-08
1132.500,2.405E-08
1132.850,2.624E-08
1133.200,2.805E-08
1133.550,2.809E-08
1133.900,2.731E-08
1134.250,3.281E-08
1134.600,3.408E-08
1134.950,3.375E-08
1135.300,3.020E-08
1135.650,3.210E-08
1136.000,2.991E-08
1136.350,2.567E-08
1136.700,3.084E-08
1137.050,2.628E-08
1137.400,2.755E-08
1137.750,3.121E-08
1138.100,2.799E-08
1138.450,2.870E-08
1138.800,2.870E-08
1139.150,2.676E-08
1139.500,2.886E-08
1139.850,2.968E-08
1140.200,2.471E-08
1140.550,2.504E-08
1140.900,2.350E-08
1141.250,2.637E-08
1141.600,2.615E-08
1141.950,3.056E-08
1142.300,3.166E-08
1142.650,2.681E-08
1143.000,2.990E-08
1143.350,2.703E-08
1143.700,2.637E-08
1144.050,1.931E-08
1144.400,2.151E-08
1144.750,2.521E-08
1145.100,2.333E-08
1145.450,2.200E-08
1145.800,2.444E-08
1146.150,2.510E-08
1146.500,2.919E-08
1146.850,2.167E-08
1147.200,2.444E-08
1147.550,2.532E-08
1147.900,2.654E-08
1148.250,2.300E-08
1148.600,1.924E-08
1148.950,2.112E-08
1149.300,2.355E-08
1149.650,2.565E-08
1150.000,2.616E-08
