IstTemp[K]=293.00

 800.000,4.702E-08
 800.350,2.946E-08
 800.700,4.940E-08
 801.050,2.999E-08
 801.400,4.721E-08
 801.750,4.306E-08
 802.100,4.068E-08
 802.450,3.585E-08
 802.800,2.814E-08
 803.150,4.236E-08
 803.500,3.931E-08
 803.850,4.256E-08
 804.200,4.167E-08
 804.550,2.571E-08
 804.900,4.807E-08
 805.250,4.895E-08
 805.600,2.271E-08
 805.950,2.795E-08
 806.300,4.531E-08
 806.650,4.237E-08
 807.000,4.649E-08
 807.350,4.198E-08
 807.700,3.346E-08
 808.050,3.229E-08
 808.400,4.403E-08
 808.750,3.954E-08
 809.100,4.188E-08
 809.450,3.573E-08
 809.800,3.769E-08
 810.150,4.763E-08
 810.500,4.383E-08
 810.850,4.149E-08
 811.200,4.314E-08
 811.550,4.285E-08
 811.900,5.335E-08
 812.250,5.043E-08
 812.600,3.432E-08
 812.950,2.821E-08
 813.300,4.304E-08
 813.650,4.712E-08
 814.000,4.266E-08
 814.350,4.266E-08
 814.700,3.917E-08
 815.050,3.772E-08
 815.400,4.690E-08
 815.750,4.053E-08
 816.100,4.632E-08
 816.450,4.256E-08
 816.800,3.185E-08
 817.150,4.188E-08
 817.500,2.080E-08
 817.850,2.282E-08
 818.200,4.102E-08
 818.550,4.438E-08
 818.900,3.141E-08
 819.250,4.121E-08
 819.600,4.611E-08
 819.950,3.019E-08
 820.300,4.102E-08
 820.650,3.815E-08
 821.000,3.463E-08
 821.350,3.720E-08
 821.700,3.883E-08
 822.050,3.333E-08
 822.400,4.928E-08
 822.750,3.865E-08
 823.100,4.962E-08
 823.450,4.594E-08
 823.800,3.848E-08
 824.150,2.794E-08
 824.500,3.867E-08
 824.850,4.224E-08
 825.200,3.464E-08
 825.550,3.709E-08
 825.900,2.579E-08
 826.250,6.111E-08
 826.600,3.216E-08
 826.950,3.962E-08
 827.300,3.460E-08
 827.650,2.366E-08
 828.000,3.953E-08
 828.350,4.333E-08
 828.700,2.799E-08
 829.050,4.157E-08
 829.400,2.627E-08
 829.750,5.269E-08
 830.100,3.963E-08
 830.450,3.240E-08
 830.800,3.662E-08
 831.150,3.736E-08
 831.500,2.693E-08
 831.850,3.548E-08
 832.200,3.053E-08
 832.550,4.043E-08
 832.900,4.159E-08
 833.250,3.320E-08
 833.600,3.686E-08
 833.950,3.855E-08
 834.300,3.103E-08
 834.650,2.144E-08
 835.000,3.477E-08
 835.350,4.284E-08
 835.700,2.491E-08
 836.050,3.732E-08
 836.400,2.864E-08
 836.750,3.559E-08
 837.100,3.207E-08
 837.450,2.735E-08
 837.800,3.810E-08
 838.150,2.896E-08
 838.500,2.940E-08
 838.850,2.933E-08
 839.200,2.818E-08
 839.550,2.584E-08
 839.900,2.805E-08
 840.250,3.462E-08
 840.600,3.134E-08
 840.950,4.574E-08
 841.300,2.831E-08
 841.650,3.901E-08
 842.000,3.850E-08
 842.350,3.014E-08
 842.700,4.306E-08
 843.050,3.910E-08
 843.400,4.189E-08
 843.750,1.447E-08
 844.100,2.260E-08
 844.450,3.402E-08
 844.800,3.995E-08
 845.150,3.461E-08
 845.500,3.486E-08
 845.850,3.308E-08
 846.200,3.690E-08
 846.550,2.653E-08
 846.900,3.418E-08
 847.250,3.750E-08
 847.600,4.464E-08
 847.950,3.647E-08
 848.300,3.605E-08
 848.650,4.167E-08
 849.000,3.272E-08
 849.350,3.502E-08
 849.700,3.511E-08
 850.050,3.921E-08
 850.400,2.825E-08
 850.750,3.159E-08
 851.100,2.574E-08
 851.450,4.541E-08
 851.800,3.535E-08
 852.150,4.267E-08
 852.500,4.009E-08
 852.850,4.018E-08
 853.200,3.007E-08
 853.550,4.053E-08
 853.900,3.568E-08
 854.250,3.281E-08
 854.600,4.254E-08
 854.950,3.654E-08
 855.300,4.578E-08
 855.650,2.963E-08
 856.000,4.064E-08
 856.350,4.205E-08
 856.700,2.155E-08
 857.050,3.372E-08
 857.400,2.799E-08
 857.750,2.350E-08
 858.100,4.075E-08
 858.450,3.229E-08
 858.800,3.050E-08
 859.150,3.456E-08
 859.500,2.871E-08
 859.850,2.185E-08
 860.200,4.050E-08
 860.550,3.232E-08
 860.900,3.534E-08
 861.250,3.266E-08
 861.600,3.971E-08
 861.950,2.716E-08
 862.300,3.442E-08
 862.650,3.262E-08
 863.000,5.296E-08
 863.350,3.107E-08
 863.700,4.712E-08
 864.050,2.199E-08
 864.400,2.714E-08
 864.750,4.190E-08
 865.100,3.027E-08
 865.450,3.081E-08
 865.800,4.209E-08
 866.150,3.753E-08
 866.500,4.684E-08
 866.850,3.899E-08
 867.200,3.110E-08
 867.550,2.614E-08
 867.900,4.662E-08
 868.250,3.622E-08
 868.600,3.788E-08
 868.950,4.739E-08
 869.300,4.472E-08
 869.650,3.000E-08
 870.000,3.146E-08
 870.350,3.600E-08
 870.700,3.588E-08
 871.050,4.776E-08
 871.400,3.548E-08
 871.750,4.319E-08
 872.100,4.527E-08
 872.450,4.254E-08
 872.800,3.695E-08
 873.150,4.131E-08
 873.500,4.112E-08
 873.850,4.550E-08
 874.200,3.729E-08
 874.550,3.364E-08
 874.900,3.083E-08
 875.250,3.813E-08
 875.600,4.893E-08
 875.950,5.339E-08
 876.300,4.217E-08
 876.650,4.198E-08
 877.000,4.909E-08
 877.350,4.012E-08
 877.700,5.472E-08
 878.050,4.807E-08
 878.400,3.931E-08
 878.750,3.762E-08
 879.100,4.157E-08
 879.450,3.542E-08
 879.800,3.580E-08
 880.150,5.429E-08
 880.500,4.933E-08
 880.850,4.675E-08
 881.200,4.265E-08
 881.550,3.995E-08
 881.900,3.944E-08
 882.250,5.281E-08
 882.600,4.869E-08
 882.950,5.051E-08
 883.300,5.214E-08
 883.650,4.892E-08
 884.000,5.330E-08
 884.350,4.690E-08
 884.700,3.632E-08
 885.050,5.293E-08
 885.400,3.435E-08
 885.750,5.029E-08
 886.100,4.088E-08
 886.450,4.960E-08
 886.800,5.484E-08
 887.150,3.860E-08
 887.500,5.045E-08
 887.850,4.498E-08
 888.200,6.794E-08
 888.550,5.503E-08
 888.900,4.114E-08
 889.250,3.905E-08
 889.600,5.373E-08
 889.950,5.792E-08
 890.300,4.821E-08
 890.650,5.072E-08
 891.000,5.698E-08
 891.350,5.166E-08
 891.700,5.604E-08
 892.050,6.324E-08
 892.400,5.479E-08
 892.750,7.201E-08
 893.100,5.009E-08
 893.450,6.042E-08
 893.800,5.949E-08
 894.150,7.827E-08
 894.500,6.324E-08
 894.850,6.497E-08
 895.200,5.997E-08
 895.550,6.435E-08
 895.900,6.997E-08
 896.250,7.465E-08
 896.600,6.591E-08
 896.950,6.154E-08
 897.300,5.248E-08
 897.650,6.466E-08
 898.000,7.778E-08
 898.350,5.935E-08
 898.700,6.154E-08
 899.050,6.560E-08
 899.400,6.716E-08
 899.750,5.672E-08
 900.100,7.835E-08
 900.450,6.918E-08
 900.800,7.149E-08
 901.150,7.411E-08
 901.500,8.410E-08
 901.850,6.655E-08
 902.200,8.414E-08
 902.550,9.310E-08
 902.900,8.040E-08
 903.250,8.447E-08
 903.600,8.094E-08
 903.950,8.208E-08
 904.300,8.370E-08
 904.650,8.861E-08
 905.000,9.560E-08
 905.350,6.608E-08
 905.700,9.635E-08
 906.050,1.013E-07
 906.400,9.095E-08
 906.750,1.253E-07
 907.100,9.377E-08
 907.450,9.621E-08
 907.800,9.070E-08
 908.150,1.130E-07
 908.500,9.503E-08
 908.850,9.540E-08
 909.200,9.866E-08
 909.550,1.060E-07
 909.900,1.199E-07
 910.250,1.185E-07
 910.600,1.036E-07
 910.950,1.134E-07
 911.300,1.234E-07
 911.650,1.219E-07
 912.000,1.121E-07
 912.350,1.239E-07
 912.700,1.169E-07
 913.050,1.344E-07
 913.400,1.319E-07
 913.750,1.200E-07
 914.100,1.140E-07
 914.450,1.298E-07
 914.800,1.289E-07
 915.150,1.364E-07
 915.500,1.259E-07
 915.850,1.333E-07
 916.200,1.439E-07
 916.550,1.536E-07
 916.900,1.556E-07
 917.250,1.633E-07
 917.600,1.573E-07
 917.950,1.579E-07
 918.300,1.515E-07
 918.650,1.707E-07
 919.000,1.678E-07
 919.350,1.653E-07
 919.700,1.763E-07
 920.050,1.764E-07
 920.400,1.806E-07
 920.750,1.949E-07
 921.100,1.897E-07
 921.450,1.873E-07
 921.800,1.896E-07
 922.150,1.950E-07
 922.500,1.985E-07
 922.850,1.988E-07
 923.200,2.001E-07
 923.550,2.127E-07
 923.900,2.161E-07
 924.250,2.165E-07
 924.600,2.228E-07
 924.950,2.199E-07
 925.300,2.225E-07
 925.650,2.430E-07
 926.000,2.200E-07
 926.350,2.273E-07
 926.700,2.360E-07
 927.050,2.474E-07
 927.400,2.416E-07
 927.750,2.481E-07
 928.100,2.504E-07
 928.450,2.483E-07
 928.800,2.621E-07
 929.150,2.676E-07
 929.500,2.627E-07
 929.850,2.655E-07
 930.200,2.771E-07
 930.550,2.865E-07
 930.900,2.892E-07
 931.250,2.903E-07
 931.600,2.919E-07
 931.950,3.123E-07
 932.300,3.137E-07
 932.650,3.157E-07
 933.000,3.140E-07
 933.350,3.238E-07
 933.700,3.378E-07
 934.050,3.299E-07
 934.400,3.429E-07
 934.750,3.361E-07
 935.100,3.421E-07
 935.450,3.560E-07
 935.800,3.541E-07
 936.150,3.619E-07
 936.500,3.647E-07
 936.850,3.753E-07
 937.200,3.778E-07
 937.550,3.845E-07
 937.900,3.907E-07
 938.250,3.919E-07
 938.600,4.047E-07
 938.950,4.132E-07
 939.300,4.266E-07
 939.650,4.176E-07
 940.000,4.322E-07
 940.350,4.184E-07
 940.700,4.366E-07
 941.050,4.492E-07
 941.400,4.528E-07
 941.750,4.479E-07
 942.100,4.529E-07
 942.450,4.785E-07
 942.800,4.681E-07
 943.150,4.682E-07
 943.500,4.778E-07
 943.850,5.016E-07
 944.200,5.032E-07
 944.550,5.065E-07
 944.900,5.146E-07
 945.250,5.315E-07
 945.600,5.359E-07
 945.950,5.317E-07
 946.300,5.417E-07
 946.650,5.525E-07
 947.000,5.500E-07
 947.350,5.584E-07
 947.700,5.605E-07
 948.050,5.657E-07
 948.400,5.811E-07
 948.750,5.925E-07
 949.100,5.846E-07
 949.450,6.000E-07
 949.800,6.005E-07
 950.150,6.064E-07
 950.500,6.226E-07
 950.850,6.310E-07
 951.200,6.556E-07
 951.550,6.477E-07
 951.900,6.473E-07
 952.250,6.672E-07
 952.600,6.728E-07
 952.950,6.797E-07
 953.300,6.816E-07
 953.650,6.983E-07
 954.000,7.087E-07
 954.350,7.168E-07
 954.700,7.275E-07
 955.050,7.342E-07
 955.400,7.441E-07
 955.750,7.428E-07
 956.100,7.642E-07
 956.450,7.695E-07
 956.800,7.745E-07
 957.150,7.813E-07
 957.500,7.959E-07
 957.850,8.320E-07
 958.200,8.243E-07
 958.550,8.315E-07
 958.900,8.417E-07
 959.250,8.623E-07
 959.600,8.763E-07
 959.950,8.826E-07
 960.300,8.876E-07
 960.650,9.058E-07
 961.000,9.206E-07
 961.350,9.336E-07
 961.700,9.368E-07
 962.050,9.600E-07
 962.400,9.699E-07
 962.750,9.879E-07
 963.100,1.013E-06
 963.450,1.024E-06
 963.800,1.037E-06
 964.150,1.051E-06
 964.500,1.081E-06
 964.850,1.099E-06
 965.200,1.120E-06
 965.550,1.128E-06
 965.900,1.149E-06
 966.250,1.180E-06
 966.600,1.200E-06
 966.950,1.226E-06
 967.300,1.256E-06
 967.650,1.280E-06
 968.000,1.316E-06
 968.350,1.359E-06
 968.700,1.399E-06
 969.050,1.431E-06
 969.400,1.487E-06
 969.750,1.555E-06
 970.100,1.623E-06
 970.450,1.696E-06
 970.800,1.808E-06
 971.150,1.935E-06
 971.500,2.114E-06
 971.850,2.329E-06
 972.200,2.568E-06
 972.550,2.844E-06
 972.900,3.094E-06
 973.250,3.404E-06
 973.600,3.661E-06
 973.950,3.926E-06
 974.300,4.166E-06
 974.650,4.309E-06
 975.000,4.448E-06
 975.350,4.608E-06
 975.700,4.638E-06
 976.050,4.720E-06
 976.400,4.761E-06
 976.750,4.791E-06
 977.100,4.796E-06
 977.450,4.775E-06
 977.800,4.718E-06
 978.150,4.652E-06
 978.500,4.550E-06
 978.850,4.438E-06
 979.200,4.288E-06
 979.550,4.089E-06
 979.900,3.918E-06
 980.250,3.741E-06
 980.600,3.597E-06
 980.950,3.430E-06
 981.300,3.255E-06
 981.650,3.095E-06
 982.000,2.972E-06
 982.350,2.833E-06
 982.700,2.724E-06
 983.050,2.597E-06
 983.400,2.510E-06
 983.750,2.430E-06
 984.100,2.360E-06
 984.450,2.304E-06
 984.800,2.253E-06
 985.150,2.208E-06
 985.500,2.174E-06
 985.850,2.136E-06
 986.200,2.104E-06
 986.550,2.070E-06
 986.900,2.083E-06
 987.250,2.062E-06
 987.600,2.054E-06
 987.950,2.039E-06
 988.300,2.029E-06
 988.650,2.026E-06
 989.000,2.009E-06
 989.350,2.014E-06
 989.700,2.020E-06
 990.050,2.038E-06
 990.400,2.029E-06
 990.750,2.035E-06
 991.100,2.054E-06
 991.450,2.062E-06
 991.800,2.069E-06
 992.150,2.069E-06
 992.500,2.067E-06
 992.850,2.085E-06
 993.200,2.092E-06
 993.550,2.113E-06
 993.900,2.105E-06
 994.250,2.114E-06
 994.600,2.118E-06
 994.950,2.137E-06
 995.300,2.155E-06
 995.650,2.176E-06
 996.000,2.200E-06
 996.350,2.213E-06
 996.700,2.222E-06
 997.050,2.254E-06
 997.400,2.243E-06
 997.750,2.266E-06
 998.100,2.281E-06
 998.450,2.300E-06
 998.800,2.301E-06
 999.150,2.317E-06
 999.500,2.335E-06
 999.850,2.354E-06
1000.200,2.362E-06
1000.550,2.357E-06
1000.900,2.382E-06
1001.250,2.406E-06
1001.600,2.424E-06
1001.950,2.422E-06
1002.300,2.424E-06
1002.650,2.458E-06
1003.000,2.478E-06
1003.350,2.478E-06
1003.700,2.482E-06
1004.050,2.486E-06
1004.400,2.494E-06
1004.750,2.504E-06
1005.100,2.517E-06
1005.450,2.515E-06
1005.800,2.509E-06
1006.150,2.515E-06
1006.500,2.528E-06
1006.850,2.529E-06
1007.200,2.519E-06
1007.550,2.537E-06
1007.900,2.516E-06
1008.250,2.509E-06
1008.600,2.523E-06
1008.950,2.535E-06
1009.300,2.534E-06
1009.650,2.533E-06
1010.000,2.539E-06
1010.350,2.542E-06
1010.700,2.544E-06
1011.050,2.547E-06
1011.400,2.549E-06
1011.750,2.556E-06
1012.100,2.545E-06
1012.450,2.540E-06
1012.800,2.539E-06
1013.150,2.560E-06
1013.500,2.551E-06
1013.850,2.536E-06
1014.200,2.529E-06
1014.550,2.520E-06
1014.900,2.522E-06
1015.250,2.538E-06
1015.600,2.528E-06
1015.950,2.514E-06
1016.300,2.526E-06
1016.650,2.498E-06
1017.000,2.512E-06
1017.350,2.493E-06
1017.700,2.501E-06
1018.050,2.463E-06
1018.400,2.462E-06
1018.750,2.451E-06
1019.100,2.451E-06
1019.450,2.446E-06
1019.800,2.444E-06
1020.150,2.420E-06
1020.500,2.412E-06
1020.850,2.403E-06
1021.200,2.402E-06
1021.550,2.387E-06
1021.900,2.374E-06
1022.250,2.379E-06
1022.600,2.365E-06
1022.950,2.353E-06
1023.300,2.339E-06
1023.650,2.323E-06
1024.000,2.309E-06
1024.350,2.310E-06
1024.700,2.294E-06
1025.050,2.294E-06
1025.400,2.280E-06
1025.750,2.260E-06
1026.100,2.243E-06
1026.450,2.227E-06
1026.800,2.223E-06
1027.150,2.206E-06
1027.500,2.220E-06
1027.850,2.188E-06
1028.200,2.179E-06
1028.550,2.157E-06
1028.900,2.129E-06
1029.250,2.112E-06
1029.600,2.114E-06
1029.950,2.100E-06
1030.300,2.083E-06
1030.650,2.053E-06
1031.000,2.053E-06
1031.350,2.041E-06
1031.700,2.027E-06
1032.050,2.007E-06
1032.400,1.993E-06
1032.750,1.977E-06
1033.100,1.953E-06
1033.450,1.970E-06
1033.800,1.916E-06
1034.150,1.910E-06
1034.500,1.895E-06
1034.850,1.868E-06
1035.200,1.874E-06
1035.550,1.838E-06
1035.900,1.837E-06
1036.250,1.810E-06
1036.600,1.800E-06
1036.950,1.784E-06
1037.300,1.774E-06
1037.650,1.746E-06
1038.000,1.745E-06
1038.350,1.730E-06
1038.700,1.733E-06
1039.050,1.716E-06
1039.400,1.695E-06
1039.750,1.686E-06
1040.100,1.661E-06
1040.450,1.661E-06
1040.800,1.662E-06
1041.150,1.654E-06
1041.500,1.616E-06
1041.850,1.617E-06
1042.200,1.589E-06
1042.550,1.588E-06
1042.900,1.569E-06
1043.250,1.550E-06
1043.600,1.545E-06
1043.950,1.543E-06
1044.300,1.533E-06
1044.650,1.541E-06
1045.000,1.529E-06
1045.350,1.484E-06
1045.700,1.471E-06
1046.050,1.460E-06
1046.400,1.447E-06
1046.750,1.442E-06
1047.100,1.439E-06
1047.450,1.439E-06
1047.800,1.406E-06
1048.150,1.411E-06
1048.500,1.407E-06
1048.850,1.396E-06
1049.200,1.387E-06
1049.550,1.373E-06
1049.900,1.371E-06
1050.250,1.295E-06
1050.600,1.286E-06
1050.950,1.277E-06
1051.300,1.286E-06
1051.650,1.264E-06
1052.000,1.236E-06
1052.350,1.240E-06
1052.700,1.261E-06
1053.050,1.232E-06
1053.400,1.212E-06
1053.750,1.189E-06
1054.100,1.182E-06
1054.450,1.178E-06
1054.800,1.183E-06
1055.150,1.160E-06
1055.500,1.140E-06
1055.850,1.143E-06
1056.200,1.115E-06
1056.550,1.109E-06
1056.900,1.135E-06
1057.250,1.105E-06
1057.600,1.089E-06
1057.950,1.094E-06
1058.300,1.070E-06
1058.650,1.068E-06
1059.000,1.050E-06
1059.350,1.050E-06
1059.700,1.024E-06
1060.050,1.040E-06
1060.400,1.031E-06
1060.750,1.033E-06
1061.100,1.024E-06
1061.450,1.010E-06
1061.800,1.010E-06
1062.150,1.013E-06
1062.500,9.995E-07
1062.850,9.862E-07
1063.200,9.706E-07
1063.550,9.571E-07
1063.900,9.484E-07
1064.250,9.358E-07
1064.600,9.304E-07
1064.950,9.117E-07
1065.300,9.208E-07
1065.650,8.861E-07
1066.000,8.905E-07
1066.350,8.792E-07
1066.700,8.867E-07
1067.050,8.569E-07
1067.400,8.494E-07
1067.750,8.490E-07
1068.100,8.316E-07
1068.450,8.156E-07
1068.800,8.315E-07
1069.150,8.120E-07
1069.500,8.078E-07
1069.850,7.964E-07
1070.200,7.966E-07
1070.550,7.668E-07
1070.900,7.711E-07
1071.250,7.732E-07
1071.600,7.614E-07
1071.950,7.523E-07
1072.300,7.571E-07
1072.650,7.447E-07
1073.000,7.284E-07
1073.350,7.358E-07
1073.700,7.213E-07
1074.050,7.287E-07
1074.400,7.091E-07
1074.750,6.977E-07
1075.100,6.751E-07
1075.450,6.709E-07
1075.800,6.637E-07
1076.150,6.521E-07
1076.500,6.361E-07
1076.850,6.412E-07
1077.200,6.256E-07
1077.550,6.079E-07
1077.900,5.942E-07
1078.250,5.879E-07
1078.600,6.029E-07
1078.950,5.855E-07
1079.300,5.825E-07
1079.650,5.734E-07
1080.000,5.821E-07
1080.350,5.676E-07
1080.700,5.652E-07
1081.050,5.538E-07
1081.400,5.379E-07
1081.750,5.352E-07
1082.100,5.177E-07
1082.450,5.201E-07
1082.800,5.014E-07
1083.150,5.011E-07
1083.500,4.957E-07
1083.850,5.018E-07
1084.200,4.910E-07
1084.550,4.835E-07
1084.900,4.741E-07
1085.250,4.637E-07
1085.600,4.510E-07
1085.950,4.492E-07
1086.300,4.432E-07
1086.650,4.390E-07
1087.000,4.361E-07
1087.350,4.199E-07
1087.700,4.104E-07
1088.050,4.195E-07
1088.400,4.057E-07
1088.750,4.021E-07
1089.100,3.958E-07
1089.450,3.831E-07
1089.800,3.846E-07
1090.150,3.686E-07
1090.500,3.804E-07
1090.850,3.716E-07
1091.200,3.615E-07
1091.550,3.554E-07
1091.900,3.520E-07
1092.250,3.406E-07
1092.600,3.377E-07
1092.950,3.262E-07
1093.300,3.267E-07
1093.650,3.299E-07
1094.000,3.247E-07
1094.350,3.135E-07
1094.700,3.067E-07
1095.050,3.013E-07
1095.400,3.005E-07
1095.750,2.975E-07
1096.100,2.890E-07
1096.450,2.934E-07
1096.800,2.858E-07
1097.150,2.845E-07
1097.500,2.740E-07
1097.850,2.757E-07
1098.200,2.695E-07
1098.550,2.673E-07
1098.900,2.552E-07
1099.250,2.573E-07
1099.600,2.551E-07
1099.950,2.499E-07
1100.300,2.468E-07
1100.650,2.425E-07
1101.000,2.361E-07
1101.350,2.299E-07
1101.700,2.238E-07
1102.050,2.276E-07
1102.400,2.268E-07
1102.750,2.111E-07
1103.100,2.142E-07
1103.450,2.145E-07
1103.800,2.101E-07
1104.150,2.011E-07
1104.500,1.983E-07
1104.850,2.023E-07
1105.200,1.874E-07
1105.550,1.911E-07
1105.900,1.900E-07
1106.250,1.808E-07
1106.600,1.855E-07
1106.950,1.787E-07
1107.300,1.731E-07
1107.650,1.786E-07
1108.000,1.680E-07
1108.350,1.696E-07
1108.700,1.673E-07
1109.050,1.633E-07
1109.400,1.571E-07
1109.750,1.616E-07
1110.100,1.616E-07
1110.450,1.597E-07
1110.800,1.488E-07
1111.150,1.515E-07
1111.500,1.492E-07
1111.850,1.483E-07
1112.200,1.399E-07
1112.550,1.448E-07
1112.900,1.377E-07
1113.250,1.348E-07
1113.600,1.444E-07
1113.950,1.313E-07
1114.300,1.315E-07
1114.650,1.309E-07
1115.000,1.333E-07
1115.350,1.234E-07
1115.700,1.174E-07
1116.050,1.215E-07
1116.400,1.218E-07
1116.750,1.248E-07
1117.100,1.260E-07
1117.450,1.212E-07
1117.800,1.076E-07
1118.150,1.094E-07
1118.500,1.055E-07
1118.850,1.073E-07
1119.200,1.030E-07
1119.550,1.006E-07
1119.900,1.102E-07
1120.250,1.032E-07
1120.600,9.734E-08
1120.950,1.004E-07
1121.300,1.031E-07
1121.650,1.022E-07
1122.000,9.329E-08
1122.350,9.806E-08
1122.700,9.806E-08
1123.050,9.389E-08
1123.400,9.041E-08
1123.750,8.834E-08
1124.100,8.777E-08
1124.450,8.756E-08
1124.800,8.629E-08
1125.150,8.702E-08
1125.500,8.713E-08
1125.850,8.532E-08
1126.200,7.233E-08
1126.550,8.728E-08
1126.900,8.524E-08
1127.250,8.340E-08
1127.600,7.577E-08
1127.950,7.692E-08
1128.300,7.788E-08
1128.650,7.731E-08
1129.000,7.223E-08
1129.350,7.166E-08
1129.700,7.627E-08
1130.050,7.525E-08
1130.400,6.559E-08
1130.750,7.315E-08
1131.100,7.156E-08
1131.450,6.721E-08
1131.800,6.336E-08
1132.150,6.390E-08
1132.500,7.180E-08
1132.850,6.927E-08
1133.200,6.600E-08
1133.550,6.068E-08
1133.900,6.124E-08
1134.250,6.315E-08
1134.600,6.637E-08
1134.950,6.693E-08
1135.300,6.946E-08
1135.650,6.085E-08
1136.000,5.993E-08
1136.350,6.595E-08
1136.700,6.513E-08
1137.050,6.035E-08
1137.400,5.554E-08
1137.750,5.676E-08
1138.100,5.399E-08
1138.450,5.386E-08
1138.800,5.830E-08
1139.150,5.153E-08
1139.500,5.120E-08
1139.850,5.648E-08
1140.200,5.913E-08
1140.550,5.682E-08
1140.900,4.633E-08
1141.250,5.626E-08
1141.600,5.262E-08
1141.950,4.876E-08
1142.300,5.141E-08
1142.650,5.273E-08
1143.000,5.637E-08
1143.350,4.578E-08
1143.700,5.042E-08
1144.050,5.240E-08
1144.400,4.479E-08
1144.750,5.153E-08
1145.100,5.285E-08
1145.450,4.954E-08
1145.800,4.655E-08
1146.150,4.578E-08
1146.500,4.666E-08
1146.850,4.666E-08
1147.200,4.633E-08
1147.550,4.511E-08
1147.900,4.699E-08
1148.250,4.810E-08
1148.600,4.699E-08
1148.950,4.611E-08
1149.300,4.124E-08
1149.650,4.445E-08
1150.000,3.292E-08
