IstTemp[K]=293.00

 800.000,9.218E-08
 800.400,9.412E-08
 800.800,9.606E-08
 801.200,9.560E-08
 801.600,9.463E-08
 802.000,9.269E-08
 802.400,8.451E-08
 802.800,7.872E-08
 803.200,7.413E-08
 803.600,6.529E-08
 804.000,6.360E-08
 804.400,6.071E-08
 804.800,5.360E-08
 805.200,4.687E-08
 805.600,4.495E-08
 806.000,4.532E-08
 806.400,4.484E-08
 806.800,4.101E-08
 807.200,3.828E-08
 807.600,3.804E-08
 808.000,3.661E-08
 808.400,3.565E-08
 808.800,3.151E-08
 809.200,3.413E-08
 809.600,3.199E-08
 810.000,3.215E-08
 810.400,3.072E-08
 810.800,3.096E-08
 811.200,2.970E-08
 811.600,3.184E-08
 812.000,2.899E-08
 812.400,3.255E-08
 812.800,3.082E-08
 813.200,3.082E-08
 813.600,2.750E-08
 814.000,3.169E-08
 814.400,3.075E-08
 814.800,3.642E-08
 815.200,2.838E-08
 815.600,2.784E-08
 816.000,2.832E-08
 816.400,3.209E-08
 816.800,3.115E-08
 817.200,2.566E-08
 817.600,2.590E-08
 818.000,2.778E-08
 818.400,2.866E-08
 818.800,2.537E-08
 819.200,2.443E-08
 819.600,2.631E-08
 820.000,2.718E-08
 820.400,2.361E-08
 820.800,2.123E-08
 821.200,2.309E-08
 821.600,2.397E-08
 822.000,2.020E-08
 822.400,2.113E-08
 822.800,2.409E-08
 823.200,2.334E-08
 823.600,2.283E-08
 824.000,2.052E-08
 824.400,2.623E-08
 824.800,2.732E-08
 825.200,2.341E-08
 825.600,2.634E-08
 826.000,2.399E-08
 826.400,2.120E-08
 826.800,1.755E-08
 827.200,2.070E-08
 827.600,1.883E-08
 828.000,1.815E-08
 828.400,1.721E-08
 828.800,1.694E-08
 829.200,1.555E-08
 829.600,1.758E-08
 830.000,1.637E-08
 830.400,2.014E-08
 830.800,2.049E-08
 831.200,1.867E-08
 831.600,1.991E-08
 832.000,1.655E-08
 832.400,1.890E-08
 832.800,1.666E-08
 833.200,1.702E-08
 833.600,1.676E-08
 834.000,1.474E-08
 834.400,1.730E-08
 834.800,1.636E-08
 835.200,1.761E-08
 835.600,1.517E-08
 836.000,1.808E-08
 836.400,1.910E-08
 836.800,2.218E-08
 837.200,2.255E-08
 837.600,2.140E-08
 838.000,2.345E-08
 838.400,2.646E-08
 838.800,2.827E-08
 839.200,2.856E-08
 839.600,2.787E-08
 840.000,2.822E-08
 840.400,3.131E-08
 840.800,3.770E-08
 841.200,3.893E-08
 841.600,3.861E-08
 842.000,3.861E-08
 842.400,4.398E-08
 842.800,4.852E-08
 843.200,4.987E-08
 843.600,5.091E-08
 844.000,5.401E-08
 844.400,5.919E-08
 844.800,6.036E-08
 845.200,6.326E-08
 845.600,6.720E-08
 846.000,7.094E-08
 846.400,7.380E-08
 846.800,7.859E-08
 847.200,8.274E-08
 847.600,8.815E-08
 848.000,9.397E-08
 848.400,1.000E-07
 848.800,1.084E-07
 849.200,1.129E-07
 849.600,1.190E-07
 850.000,1.299E-07
 850.400,1.394E-07
 850.800,1.495E-07
 851.200,1.620E-07
 851.600,1.750E-07
 852.000,1.926E-07
 852.400,2.112E-07
 852.800,2.326E-07
 853.200,2.592E-07
 853.600,2.901E-07
 854.000,3.197E-07
 854.400,3.523E-07
 854.800,3.859E-07
 855.200,4.250E-07
 855.600,4.625E-07
 856.000,5.121E-07
 856.400,5.621E-07
 856.800,6.164E-07
 857.200,6.826E-07
 857.600,7.595E-07
 858.000,8.568E-07
 858.400,9.907E-07
 858.800,1.183E-06
 859.200,1.488E-06
 859.600,1.813E-06
 860.000,2.090E-06
 860.400,2.327E-06
 860.800,2.551E-06
 861.200,2.781E-06
 861.600,3.064E-06
 862.000,3.394E-06
 862.400,3.734E-06
 862.800,4.004E-06
 863.200,4.197E-06
 863.600,4.291E-06
 864.000,4.251E-06
 864.400,4.131E-06
 864.800,4.058E-06
 865.200,4.021E-06
 865.600,3.968E-06
 866.000,3.879E-06
 866.400,3.704E-06
 866.800,3.430E-06
 867.200,3.066E-06
 867.600,2.711E-06
 868.000,2.387E-06
 868.400,2.120E-06
 868.800,1.904E-06
 869.200,1.726E-06
 869.600,1.596E-06
 870.000,1.497E-06
 870.400,1.420E-06
 870.800,1.349E-06
 871.200,1.282E-06
 871.600,1.223E-06
 872.000,1.164E-06
 872.400,1.102E-06
 872.800,1.040E-06
 873.200,9.843E-07
 873.600,9.349E-07
 874.000,8.944E-07
 874.400,8.530E-07
 874.800,8.165E-07
 875.200,7.826E-07
 875.600,7.563E-07
 876.000,7.360E-07
 876.400,7.240E-07
 876.800,7.197E-07
 877.200,7.175E-07
 877.600,7.175E-07
 878.000,7.209E-07
 878.400,7.266E-07
 878.800,7.418E-07
 879.200,7.479E-07
 879.600,7.561E-07
 880.000,7.666E-07
 880.400,7.735E-07
 880.800,7.794E-07
 881.200,7.864E-07
 881.600,7.995E-07
 882.000,8.061E-07
 882.400,8.257E-07
 882.800,8.500E-07
 883.200,8.811E-07
 883.600,9.106E-07
 884.000,9.497E-07
 884.400,9.937E-07
 884.800,1.035E-06
 885.200,1.097E-06
 885.600,1.141E-06
 886.000,1.191E-06
 886.400,1.251E-06
 886.800,1.301E-06
 887.200,1.357E-06
 887.600,1.416E-06
 888.000,1.483E-06
 888.400,1.547E-06
 888.800,1.616E-06
 889.200,1.679E-06
 889.600,1.747E-06
 890.000,1.809E-06
 890.400,1.857E-06
 890.800,1.896E-06
 891.200,1.928E-06
 891.600,1.954E-06
 892.000,1.960E-06
 892.400,1.946E-06
 892.800,1.915E-06
 893.200,1.865E-06
 893.600,1.804E-06
 894.000,1.729E-06
 894.400,1.653E-06
 894.800,1.585E-06
 895.200,1.520E-06
 895.600,1.465E-06
 896.000,1.428E-06
 896.400,1.388E-06
 896.800,1.359E-06
 897.200,1.342E-06
 897.600,1.332E-06
 898.000,1.321E-06
 898.400,1.311E-06
 898.800,1.312E-06
 899.200,1.310E-06
 899.600,1.312E-06
 900.000,1.309E-06
 900.400,1.315E-06
 900.800,1.328E-06
 901.200,1.346E-06
 901.600,1.371E-06
 902.000,1.378E-06
 902.400,1.386E-06
 902.800,1.419E-06
 903.200,1.474E-06
 903.600,1.555E-06
 904.000,1.633E-06
 904.400,1.677E-06
 904.800,1.675E-06
 905.200,1.623E-06
 905.600,1.518E-06
 906.000,1.367E-06
 906.400,1.210E-06
 906.800,1.095E-06
 907.200,1.019E-06
 907.600,9.592E-07
 908.000,9.075E-07
 908.400,8.607E-07
 908.800,8.105E-07
 909.200,7.625E-07
 909.600,7.119E-07
 910.000,6.607E-07
 910.400,6.102E-07
 910.800,5.598E-07
 911.200,5.154E-07
 911.600,4.693E-07
 912.000,4.278E-07
 912.400,3.946E-07
 912.800,3.728E-07
 913.200,3.451E-07
 913.600,3.208E-07
 914.000,3.014E-07
 914.400,2.805E-07
 914.800,2.642E-07
 915.200,2.491E-07
 915.600,2.365E-07
 916.000,2.221E-07
 916.400,2.113E-07
 916.800,2.017E-07
 917.200,1.904E-07
 917.600,1.842E-07
 918.000,1.774E-07
 918.400,1.678E-07
 918.800,1.624E-07
 919.200,1.597E-07
 919.600,1.552E-07
 920.000,1.566E-07
 920.400,1.549E-07
 920.800,1.527E-07
 921.200,1.475E-07
 921.600,1.405E-07
 922.000,1.365E-07
 922.400,1.262E-07
 922.800,1.170E-07
 923.200,1.102E-07
 923.600,1.047E-07
 924.000,1.013E-07
 924.400,9.803E-08
 924.800,9.423E-08
 925.200,9.205E-08
 925.600,8.772E-08
 926.000,8.518E-08
 926.400,8.537E-08
 926.800,8.054E-08
 927.200,7.826E-08
 927.600,7.580E-08
 928.000,7.450E-08
 928.400,7.433E-08
 928.800,6.889E-08
 929.200,6.688E-08
 929.600,6.714E-08
 930.000,6.403E-08
 930.400,5.966E-08
 930.800,5.939E-08
 931.200,5.618E-08
 931.600,5.336E-08
 932.000,5.215E-08
 932.400,5.027E-08
 932.800,4.715E-08
 933.200,4.765E-08
 933.600,4.403E-08
 934.000,4.258E-08
 934.400,4.363E-08
 934.800,4.078E-08
 935.200,3.787E-08
 935.600,3.805E-08
 936.000,3.473E-08
 936.400,3.579E-08
 936.800,3.424E-08
 937.200,3.270E-08
 937.600,3.290E-08
 938.000,3.275E-08
 938.400,3.369E-08
 938.800,3.455E-08
 939.200,3.119E-08
 939.600,3.289E-08
 940.000,2.823E-08
 940.400,2.927E-08
 940.800,3.086E-08
 941.200,2.873E-08
 941.600,2.712E-08
 942.000,2.788E-08
 942.400,2.547E-08
 942.800,2.714E-08
 943.200,2.513E-08
 943.600,2.485E-08
 944.000,2.490E-08
 944.400,2.436E-08
 944.800,2.377E-08
 945.200,2.509E-08
 945.600,2.392E-08
 946.000,2.460E-08
 946.400,2.386E-08
 946.800,2.349E-08
 947.200,2.744E-08
 947.600,2.405E-08
 948.000,2.477E-08
 948.400,2.466E-08
 948.800,2.378E-08
 949.200,2.495E-08
 949.600,2.209E-08
 950.000,2.006E-08
 950.400,2.153E-08
 950.800,2.164E-08
 951.200,2.098E-08
 951.600,1.853E-08
 952.000,1.728E-08
 952.400,1.739E-08
 952.800,1.615E-08
 953.200,1.850E-08
 953.600,1.831E-08
 954.000,1.400E-08
 954.400,1.723E-08
 954.800,1.363E-08
 955.200,1.390E-08
 955.600,1.357E-08
 956.000,1.531E-08
 956.400,1.292E-08
 956.800,1.363E-08
 957.200,1.272E-08
 957.600,1.210E-08
 958.000,1.077E-08
 958.400,1.118E-08
 958.800,1.147E-08
 959.200,1.115E-08
 959.600,1.113E-08
 960.000,9.515E-09
 960.400,1.036E-08
 960.800,1.045E-08
 961.200,1.428E-08
 961.600,8.978E-09
 962.000,1.052E-08
 962.400,9.079E-09
 962.800,9.200E-09
 963.200,1.017E-08
 963.600,1.014E-08
 964.000,9.417E-09
 964.400,1.094E-08
 964.800,9.374E-09
 965.200,7.538E-09
 965.600,9.053E-09
 966.000,8.734E-09
 966.400,6.086E-09
 966.800,8.280E-09
 967.200,6.471E-09
 967.600,7.280E-09
 968.000,6.852E-09
 968.400,9.024E-09
 968.800,6.684E-09
 969.200,8.302E-09
 969.600,6.925E-09
 970.000,6.367E-09
 970.400,6.217E-09
 970.800,4.596E-09
 971.200,5.529E-09
 971.600,3.902E-09
 972.000,6.458E-09
 972.400,4.295E-09
 972.800,3.482E-09
 973.200,3.214E-09
 973.600,1.603E-09
 974.000,3.066E-09
 974.400,5.054E-09
 974.800,2.660E-09
 975.200,3.848E-09
 975.600,2.780E-09
 976.000,2.251E-09
 976.400,7.925E-10
 976.800,2.899E-09
 977.200,2.899E-09
 977.600,3.024E-09
 978.000,1.181E-09
 978.400,2.755E-09
 978.800,2.748E-09
 979.200,0.000E+00
 979.600,9.140E-10
 980.000,1.433E-09
 980.400,3.908E-09
 980.800,2.340E-09
 981.200,2.470E-09
 981.600,3.899E-10
 982.000,2.723E-09
 982.400,1.815E-09
 982.800,9.077E-10
 983.200,7.763E-10
 983.600,1.553E-09
 984.000,3.105E-09
 984.400,2.323E-09
 984.800,2.065E-09
 985.200,3.485E-09
 985.600,3.863E-10
 986.000,1.417E-09
 986.400,5.139E-10
 986.800,1.156E-09
 987.200,2.698E-09
 987.600,2.820E-09
 988.000,2.436E-09
 988.400,1.282E-09
 988.800,2.046E-09
 989.200,1.918E-09
 989.600,1.791E-09
 990.000,2.042E-09
 990.400,2.552E-10
 990.800,1.531E-09
 991.200,3.190E-09
 991.600,1.531E-09
 992.000,6.380E-10
 992.400,7.656E-10
 992.800,2.807E-09
 993.200,2.292E-09
 993.600,2.546E-10
 994.000,1.528E-09
 994.400,2.292E-09
 994.800,8.912E-10
 995.200,2.037E-09
 995.600,3.055E-09
 996.000,3.692E-09
 996.400,3.810E-10
 996.800,2.032E-09
 997.200,3.556E-09
 997.600,2.286E-09
 998.000,3.937E-09
 998.400,2.921E-09
 998.800,3.683E-09
 999.200,5.081E-09
 999.600,3.302E-09
1000.000,3.422E-09
1000.400,4.815E-09
1000.800,6.083E-09
1001.200,5.081E-09
1001.600,4.827E-09
1002.000,4.573E-09
1002.400,5.092E-09
1002.800,7.638E-09
1003.200,4.456E-09
1003.600,7.146E-09
1004.000,6.125E-09
1004.400,7.911E-09
1004.800,8.185E-09
1005.200,7.546E-09
1005.600,7.290E-09
1006.000,8.461E-09
1006.400,8.973E-09
1006.800,9.614E-09
1007.200,9.508E-09
1007.600,9.251E-09
1008.000,1.156E-08
1008.400,1.182E-08
1008.800,1.108E-08
1009.200,1.365E-08
1009.600,1.249E-08
1010.000,1.381E-08
1010.400,1.578E-08
1010.800,1.841E-08
1011.200,1.521E-08
1011.600,1.759E-08
1012.000,1.724E-08
1012.400,1.854E-08
1012.800,2.055E-08
1013.200,2.112E-08
1013.600,2.117E-08
1014.000,2.240E-08
1014.400,2.351E-08
1014.800,2.476E-08
1015.200,2.521E-08
1015.600,2.740E-08
1016.000,2.727E-08
1016.400,2.866E-08
1016.800,3.193E-08
1017.200,3.361E-08
1017.600,3.383E-08
1018.000,3.417E-08
1018.400,3.884E-08
1018.800,3.974E-08
1019.200,4.136E-08
1019.600,4.227E-08
1020.000,4.355E-08
1020.400,4.488E-08
1020.800,4.799E-08
1021.200,4.961E-08
1021.600,5.273E-08
1022.000,5.561E-08
1022.400,5.920E-08
1022.800,5.933E-08
1023.200,6.295E-08
1023.600,6.449E-08
1024.000,6.870E-08
1024.400,7.112E-08
1024.800,7.298E-08
1025.200,7.823E-08
1025.600,8.237E-08
1026.000,8.631E-08
1026.400,8.793E-08
1026.800,9.499E-08
1027.200,9.758E-08
1027.600,1.033E-07
1028.000,1.088E-07
1028.400,1.121E-07
1028.800,1.190E-07
1029.200,1.257E-07
1029.600,1.324E-07
1030.000,1.389E-07
1030.400,1.478E-07
1030.800,1.553E-07
1031.200,1.655E-07
1031.600,1.767E-07
1032.000,1.872E-07
1032.400,2.041E-07
1032.800,2.150E-07
1033.200,2.327E-07
1033.600,2.553E-07
1034.000,2.783E-07
1034.400,3.071E-07
1034.800,3.354E-07
1035.200,3.698E-07
1035.600,4.027E-07
1036.000,4.379E-07
1036.400,4.745E-07
1036.800,5.121E-07
1037.200,5.459E-07
1037.600,5.797E-07
1038.000,6.165E-07
1038.400,6.558E-07
1038.800,6.927E-07
1039.200,7.320E-07
1039.600,7.720E-07
1040.000,8.181E-07
1040.400,8.703E-07
1040.800,9.382E-07
1041.200,1.032E-06
1041.600,1.141E-06
1042.000,1.243E-06
1042.400,1.316E-06
1042.800,1.374E-06
1043.200,1.422E-06
1043.600,1.468E-06
1044.000,1.562E-06
1044.400,1.737E-06
1044.800,2.012E-06
1045.200,2.293E-06
1045.600,2.499E-06
1046.000,2.634E-06
1046.400,2.698E-06
1046.800,2.705E-06
1047.200,2.643E-06
1047.600,2.577E-06
1048.000,2.539E-06
1048.400,2.508E-06
1048.800,2.452E-06
1049.200,2.356E-06
1049.600,2.252E-06
1050.000,2.160E-06
1050.400,2.129E-06
1050.800,2.079E-06
1051.200,2.036E-06
1051.600,1.994E-06
1052.000,1.961E-06
1052.400,1.912E-06
1052.800,1.854E-06
1053.200,1.781E-06
1053.600,1.709E-06
1054.000,1.633E-06
1054.400,1.562E-06
1054.800,1.512E-06
1055.200,1.488E-06
1055.600,1.486E-06
1056.000,1.504E-06
1056.400,1.532E-06
1056.800,1.558E-06
1057.200,1.586E-06
1057.600,1.608E-06
1058.000,1.636E-06
1058.400,1.671E-06
1058.800,1.720E-06
1059.200,1.785E-06
1059.600,1.868E-06
1060.000,1.968E-06
1060.400,2.076E-06
1060.800,2.210E-06
1061.200,2.356E-06
1061.600,2.502E-06
1062.000,2.626E-06
1062.400,2.713E-06
1062.800,2.775E-06
1063.200,2.801E-06
1063.600,2.813E-06
1064.000,2.845E-06
1064.400,2.920E-06
1064.800,3.039E-06
1065.200,3.185E-06
1065.600,3.323E-06
1066.000,3.408E-06
1066.400,3.418E-06
1066.800,3.366E-06
1067.200,3.257E-06
1067.600,3.105E-06
1068.000,2.933E-06
1068.400,2.755E-06
1068.800,2.589E-06
1069.200,2.447E-06
1069.600,2.307E-06
1070.000,2.178E-06
1070.400,2.057E-06
1070.800,1.948E-06
1071.200,1.823E-06
1071.600,1.690E-06
1072.000,1.558E-06
1072.400,1.413E-06
1072.800,1.289E-06
1073.200,1.181E-06
1073.600,1.090E-06
1074.000,1.011E-06
1074.400,9.544E-07
1074.800,8.983E-07
1075.200,8.544E-07
1075.600,8.166E-07
1076.000,7.817E-07
1076.400,7.518E-07
1076.800,7.269E-07
1077.200,7.035E-07
1077.600,6.766E-07
1078.000,6.496E-07
1078.400,6.211E-07
1078.800,5.928E-07
1079.200,5.678E-07
1079.600,5.447E-07
1080.000,5.214E-07
1080.400,5.050E-07
1080.800,4.854E-07
1081.200,4.698E-07
1081.600,4.575E-07
1082.000,4.368E-07
1082.400,4.180E-07
1082.800,4.028E-07
1083.200,3.847E-07
1083.600,3.659E-07
1084.000,3.477E-07
1084.400,3.324E-07
1084.800,3.171E-07
1085.200,3.040E-07
1085.600,2.907E-07
1086.000,2.796E-07
1086.400,2.735E-07
1086.800,2.612E-07
1087.200,2.522E-07
1087.600,2.471E-07
1088.000,2.359E-07
1088.400,2.251E-07
1088.800,2.213E-07
1089.200,2.148E-07
1089.600,2.093E-07
1090.000,2.023E-07
1090.400,1.979E-07
1090.800,1.943E-07
1091.200,1.858E-07
1091.600,1.835E-07
1092.000,1.788E-07
1092.400,1.769E-07
1092.800,1.730E-07
1093.200,1.674E-07
1093.600,1.695E-07
1094.000,1.640E-07
1094.400,1.590E-07
1094.800,1.535E-07
1095.200,1.478E-07
1095.600,1.410E-07
1096.000,1.334E-07
1096.400,1.298E-07
1096.800,1.233E-07
1097.200,1.190E-07
1097.600,1.167E-07
1098.000,1.111E-07
1098.400,1.093E-07
1098.800,1.062E-07
1099.200,1.039E-07
1099.600,1.026E-07
1100.000,9.714E-08
1100.400,9.640E-08
1100.800,9.442E-08
1101.200,9.204E-08
1101.600,8.557E-08
1102.000,8.445E-08
1102.400,8.221E-08
1102.800,8.049E-08
1103.200,7.674E-08
1103.600,7.697E-08
1104.000,7.321E-08
1104.400,7.061E-08
1104.800,7.075E-08
1105.200,6.747E-08
1105.600,6.590E-08
1106.000,6.445E-08
1106.400,6.330E-08
1106.800,6.005E-08
1107.200,5.912E-08
1107.600,5.819E-08
1108.000,5.557E-08
1108.400,5.406E-08
1108.800,5.386E-08
1109.200,5.097E-08
1109.600,4.937E-08
1110.000,4.946E-08
1110.400,4.463E-08
1110.800,4.512E-08
1111.200,4.414E-08
1111.600,4.169E-08
1112.000,4.277E-08
1112.400,3.877E-08
1112.800,3.985E-08
1113.200,3.752E-08
1113.600,3.713E-08
1114.000,3.559E-08
1114.400,3.444E-08
1114.800,3.319E-08
1115.200,3.224E-08
1115.600,3.311E-08
1116.000,3.313E-08
1116.400,3.171E-08
1116.800,3.046E-08
1117.200,2.790E-08
1117.600,2.761E-08
1118.000,2.688E-08
1118.400,2.825E-08
1118.800,2.471E-08
1119.200,2.561E-08
1119.600,2.618E-08
1120.000,2.831E-08
1120.400,2.527E-08
1120.800,2.341E-08
1121.200,2.549E-08
1121.600,2.373E-08
1122.000,2.405E-08
1122.400,2.358E-08
1122.800,2.231E-08
1123.200,2.099E-08
1123.600,2.272E-08
1124.000,2.075E-08
1124.400,2.258E-08
1124.800,2.052E-08
1125.200,2.084E-08
1125.600,2.038E-08
1126.000,2.052E-08
1126.400,1.986E-08
1126.800,1.972E-08
1127.200,1.721E-08
1127.600,1.699E-08
1128.000,1.550E-08
1128.400,1.500E-08
1128.800,1.472E-08
1129.200,1.395E-08
1129.600,1.709E-08
1130.000,1.724E-08
1130.400,1.152E-08
1130.800,1.288E-08
1131.200,1.214E-08
1131.600,1.119E-08
1132.000,1.291E-08
1132.400,1.163E-08
1132.800,1.023E-08
1133.200,1.114E-08
1133.600,1.021E-08
1134.000,1.121E-08
1134.400,1.136E-08
1134.800,9.001E-09
1135.200,8.708E-09
1135.600,8.708E-09
1136.000,9.593E-09
1136.400,8.598E-09
1136.800,9.481E-09
1137.200,8.036E-09
1137.600,7.207E-09
1138.000,8.558E-09
1138.400,7.819E-09
1138.800,7.640E-09
1139.200,6.725E-09
1139.600,7.801E-09
1140.000,5.726E-09
1140.400,5.994E-09
1140.800,1.020E-08
1141.200,7.605E-09
1141.600,6.799E-09
1142.000,9.125E-09
1142.400,4.831E-09
1142.800,6.799E-09
1143.200,7.784E-09
1143.600,6.442E-09
1144.000,6.442E-09
1144.400,5.368E-09
1144.800,4.753E-09
1145.200,4.663E-09
1145.600,9.864E-09
1146.000,5.649E-09
1146.400,6.815E-09
1146.800,8.878E-09
1147.200,6.546E-09
1147.600,8.070E-09
1148.000,6.994E-09
1148.400,9.685E-09
1148.800,6.905E-09
1149.200,8.698E-09
1149.600,8.070E-09
1150.000,9.617E-09
1150.400,7.622E-09
1150.800,8.768E-09
1151.200,8.410E-09
1151.600,8.033E-09
1152.000,7.392E-09
1152.400,8.995E-09
1152.800,7.463E-09
1153.200,8.953E-09
1153.600,7.518E-09
1154.000,9.729E-09
1154.400,7.588E-09
1154.800,9.420E-09
1155.200,9.508E-09
1155.600,1.063E-08
1156.000,1.043E-08
1156.400,9.705E-09
1156.800,8.306E-09
1157.200,8.723E-09
1157.600,9.312E-09
1158.000,1.053E-08
1158.400,1.068E-08
1158.800,8.576E-09
1159.200,9.334E-09
1159.600,1.106E-08
1160.000,1.302E-08
1160.400,1.061E-08
1160.800,1.043E-08
1161.200,1.075E-08
1161.600,9.808E-09
1162.000,8.861E-09
1162.400,9.356E-09
1162.800,1.013E-08
1163.200,9.957E-09
1163.600,8.307E-09
1164.000,8.392E-09
1164.400,1.105E-08
1164.800,9.569E-09
1165.200,8.886E-09
1165.600,9.057E-09
1166.000,7.842E-09
1166.400,5.541E-09
1166.800,9.291E-09
1167.200,7.229E-09
1167.600,7.229E-09
1168.000,8.845E-09
1168.400,8.675E-09
1168.800,9.164E-09
1169.200,9.758E-09
1169.600,8.146E-09
1170.000,7.873E-09
1170.400,8.804E-09
1170.800,9.312E-09
1171.200,9.291E-09
1171.600,9.797E-09
1172.000,8.108E-09
1172.400,7.837E-09
1172.800,1.095E-08
1173.200,9.691E-09
1173.600,8.491E-09
1174.000,9.080E-09
1174.400,1.000E-08
1174.800,9.478E-09
1175.200,9.059E-09
1175.600,7.633E-09
1176.000,1.029E-08
1176.400,8.285E-09
1176.800,7.197E-09
1177.200,7.848E-09
1177.600,7.514E-09
1178.000,5.928E-09
1178.400,9.435E-09
1178.800,7.830E-09
1179.200,7.664E-09
1179.600,5.914E-09
1180.000,7.064E-09
1180.400,4.987E-09
1180.800,5.390E-09
1181.200,5.970E-09
1181.600,6.799E-09
1182.000,7.032E-09
1182.400,5.874E-09
1182.800,6.287E-09
1183.200,3.797E-09
1183.600,4.292E-09
1184.000,3.879E-09
1184.400,3.294E-09
1184.800,6.423E-09
1185.200,3.212E-09
1185.600,5.258E-09
1186.000,4.026E-09
1186.400,5.164E-09
1186.800,4.836E-09
1187.200,5.820E-09
1187.600,5.398E-09
1188.000,4.825E-09
1188.400,5.070E-09
1188.800,6.364E-09
1189.200,5.630E-09
1189.600,5.385E-09
1190.000,3.989E-09
1190.400,4.233E-09
1190.800,3.980E-09
1191.200,4.629E-09
1191.600,4.305E-09
1192.000,5.753E-09
1192.400,4.376E-09
1192.800,3.079E-09
1193.200,2.830E-09
1193.600,3.557E-09
1194.000,4.527E-09
1194.400,4.517E-09
1194.800,5.243E-09
1195.200,4.678E-09
1195.600,4.667E-09
1196.000,3.863E-09
1196.400,3.774E-09
1196.800,5.861E-09
1197.200,3.774E-09
1197.600,3.765E-09
1198.000,3.845E-09
1198.400,3.605E-09
1198.800,3.836E-09
1199.200,2.478E-09
1199.600,3.596E-09
1200.000,4.704E-09
